0,0
1101,1054
1096,1055
1113,1034
1110,1028
1086,1049
1110,1044
1087,1046
1115,1065
1097,1046
1111,1021
1103,1056
1120,1044
1113,1048
1116,1025
1101,1063
1112,1031
1097,1037
1102,1059
1111,1056
1091,1033
1098,1041
1089,1031
1090,1046
1091,1047
1111,1038
1075,1037
1132,1049
1107,1045
1110,1061
1127,1041
1118,1037
1127,1046
1098,1048
1081,1041
1097,1016
1116,1015
1134,1051
1094,1042
1103,1052
1108,1032
1113,1035
1093,1035
1129,1060
1112,1069
1099,1046
1069,1048
1085,1021
1126,1044
1108,1056
1104,1055
1108,1044
1085,1049
1109,1053
1109,1058
1069,1032
1084,1028
1085,1016
1127,1036
1104,1040
1107,1065
1115,1038
1081,1039
1106,1035
1117,1051
1071,1047
1083,1031
1096,1006
1113,1038
1134,1043
1095,1080
1101,1052
1075,1027
1101,1036
1086,1029
1110,1057
1105,1041
1095,1047
1105,1025
1126,1063
1076,1074
1087,1061
1074,1043
1091,1043
1113,1033
1101,1033
1075,1045
1109,1061
1113,1067
1116,1074
1094,1032
1078,1026
1104,1025
1102,1054
1131,1066
1100,1053
1086,1040
1119,1042
1091,1036
1112,1041
1124,1068
1092,1048
1096,1035
1112,1013
1094,1038
1101,1030
1077,1042
1109,1019
1100,1052
1091,1031
1099,1049
1091,1040
1133,1054
1104,1068
1100,1036
1086,1019
1126,1071
1103,1062
1091,1025
1089,1056
1095,1024
1095,1030
1089,1042
1085,1049
1116,1075
1104,1034
1126,1062
1088,1053
1101,1055
1081,1018
1123,1034
1099,1048
1094,1036
1132,1046
1101,1072
1099,1039
1111,1058
1113,1042
1136,1026
1111,1063
1101,1042
1090,1057
1111,1030
1103,1046
1105,1033
1101,1036
1113,1025
1100,1046
1114,1058
1095,1037
1110,1047
1104,1055
1105,1032
1114,1042
1102,1048
1094,1042
1109,1064
1102,1033
1101,1051
1095,1019
1093,1036
1107,1071
1127,1046
1111,1049
1115,1052
1105,1040
1105,1054
1118,1049
1131,1040
1121,1062
1147,1056
1133,1061
1081,1045
1106,1058
1086,1026
1144,1046
1131,1037
1109,1034
1145,1041
1122,1046
1096,1055
1107,1022
1122,1050
1147,1046
1134,1080
1094,1032
1120,1021
1127,1022
1160,1065
1118,1056
1120,1051
1143,1050
1112,1053
1117,1046
1125,1038
1109,1047
1127,1053
1117,1054
1116,1054
1088,1026
1150,1046
1126,1034
1140,1045
1119,1041
1125,1050
1125,1060
1127,1064
1095,1037
1097,1021
1128,1027
1122,1045
1154,1081
1113,1032
1114,1040
1114,1041
1107,1043
1101,1051
1134,1039
1113,1061
1129,1044
1143,1060
1126,1079
1095,1052
1123,1046
1126,1032
1131,1050
1129,1044
1143,1038
1104,1035
1129,1036
1137,1049
1138,1060
1113,1049
1110,1048
1112,1012
1145,1021
1138,1048
1125,1043
1138,1037
1136,1076
1123,1053
1124,1045
1132,1045
1115,1041
1121,1034
1141,1044
1130,1071
1114,1063
1102,1050
1125,1044
1113,1048
1104,1054
1152,1061
1134,1061
1101,1048
1098,1040
1111,1032
1148,1053
1131,1064
1120,1071
1121,1046
1115,1036
1110,1040
1138,1040
1116,1028
1113,1047
1131,1049
1121,1034
1117,1031
1130,1064
1147,1057
1107,1068
1105,1037
1109,1055
1111,1019
1117,1030
1119,1068
1116,1049
1125,1029
1131,1045
1136,1044
1100,1071
1090,1046
1115,1018
1097,1039
1119,1063
1146,1046
1103,1054
1124,1054
1104,1036
1097,1035
1093,1022
1129,1059
1099,1044
1114,1050
1127,1072
1112,1060
1105,1042
1094,1030
1117,1056
1118,1049
1120,1050
1096,1037
1101,1029
1115,1043
1137,1033
1127,1064
1112,1058
1102,1044
1098,1042
1120,1045
1105,1034
1102,1042
1106,1023
1137,1060
1128,1060
1104,1049
1111,1051
1094,1048
1109,1064
1130,1041
1087,1031
1132,1046
1096,1039
1123,1039
1121,1037
1118,1061
1095,1060
1105,1025
1150,1038
1121,1034
1117,1070
1104,1022
1119,1047
1129,1065
1135,1063
1091,1038
1080,1030
1134,1030
1127,1060
1123,1041
1108,1054
1105,1039
1108,1021
1110,1044
1094,1027
1159,1051
1114,1031
1125,1028
1108,1033
1117,1012
1146,1074
1130,1072
1099,1035
1101,1040
1098,1035
1123,1026
1125,1044
1128,1045
1119,1059
1149,1029
1120,1077
1115,1051
1099,1023
1109,1040
1132,1060
1109,1027
1125,1049
1128,1054
1123,1044
1115,1035
1136,1052
1123,1047
1126,1031
1115,1053
1136,1041
1128,1051
1144,1051
1121,1045
1119,1038
1134,1054
1128,1055
1116,1027
1118,1040
1117,1035
1121,1035
1109,1040
1128,1055
1107,1050
1132,1041
1105,1059
1129,1042
1139,1064
1126,1050
1125,1052
1113,1035
1115,1040
1123,1044
1131,1030
1116,1036
1128,1045
1111,1069
1138,1074
1115,1023
1129,1038
1109,1024
1087,1064
1123,1059
1140,1032
1099,1054
1121,1027
1124,1047
1155,1051
1125,1049
1111,1063
1118,1030
1130,1050
1109,1035
1115,1035
1108,1039
1117,1048
1132,1050
1117,1016
1149,1043
1133,1062
1123,1056
1115,1022
1110,1039
1096,1043
1115,1063
1106,1055
1096,1046
1116,1014
1111,1029
1147,1051
1132,1074
1108,1042
1104,1044
1121,1029
1142,1044
1120,1020
1129,1053
1111,1058
1132,1058
1143,1044
1104,1052
1124,1065
1167,1056
1098,1045
1107,1045
1110,1021
1110,1045
1130,1034
1115,1052
1121,1056
1123,1033
1121,1036
1155,1046
1131,1085
1112,1055
1121,1045
1120,1030
1151,1045
1138,1062
1153,1035
1121,1087
1124,1051
1125,1070
1128,1035
1131,1053
1119,1063
1132,1041
1122,1030
1160,1038
1118,1057
1124,1031
1108,1052
1148,1041
1103,1062
1106,1047
1124,1010
1124,1040
1153,1037
1131,1072
1142,1056
1101,1038
1117,1031
1130,1044
1115,1045
1110,1041
1123,1054
1147,1049
1105,1036
1118,1048
1091,1055
1137,1025
1130,1030
1146,1048
1134,1078
1116,1040
1139,1091
1103,1038
1135,1045
1108,1027
1135,1019
1147,1060
1139,1045
1102,1072
1121,1042
1112,1033
1124,1027
1123,1041
1135,1029
1137,1037
1121,1080
1124,1019
1138,1037
1144,1046
1120,1067
1113,1063
1093,1029
1129,1029
1126,1041
1118,1049
1150,1032
1133,1044
1139,1064
1123,1043
1098,1052
1092,1033
1152,1032
1132,1046
1152,1076
1129,1047
1112,1045
1114,1054
1126,1064
1143,1058
1120,1062
1144,1016
1114,1063
1127,1068
1143,1056
1141,1063
1113,1049
1110,1030
1117,1037
1143,1051
1123,1044
1124,1039
1144,1051
1126,1037
1125,1062
1117,1039
1107,1028
1161,1045
1148,1036
1148,1058
1104,1039
1113,1054
1127,1034
1119,1041
1130,1053
1146,1038
1130,1053
1134,1029
1119,1040
1138,1080
1122,1044
1112,1011
1146,1057
1100,1029
1148,1047
1152,1067
1125,1048
1118,1027
1137,1029
1112,1053
1127,1051
1098,1049
1089,1020
1121,1043
1116,1056
1123,1056
1116,1062
1128,1044
1132,1045
1122,1039
1121,1043
1101,1018
1130,1050
1134,1060
1098,1045
1103,1043
1128,1036
1121,1041
1119,1058
1111,1052
1101,1053
1113,1023
1128,1035
1135,1031
1132,1078
1139,1053
1106,1049
1107,1038
1120,1034
1126,1053
1110,1041
1139,1051
1132,1044
1138,1070
1101,1031
1114,1041
1117,1034
1126,1029
1111,1036
1133,1037
1119,1021
1165,1052
1132,1054
1127,1045
1089,1055
1101,1043
1120,1023
1100,1041
1149,1069
1111,1041
1109,1038
1110,1032
1114,1057
1106,1032
1117,1024
1108,1042
1111,1013
1125,1023
1146,1044
1120,1058
1100,1063
1108,1025
1114,1024
1142,1031
1118,1068
1140,1045
1108,1047
1143,1044
1129,1062
1118,1045
1125,1057
1128,1044
1129,1074
1114,1047
1131,1033
1123,1051
1115,1028
1157,1047
1125,1046
1132,1044
1100,1067
1118,1036
1137,1047
1114,1047
1122,1035
1097,1032
1126,1038
1148,1065
1102,1062
1119,1054
1116,1044
1122,1039
1118,1037
1111,1042
1116,1062
1104,1059
1126,1032
1098,1033
1151,1048
1112,1062
1112,1041
1105,1035
1133,1046
1135,1056
1121,1043
1156,1032
1112,1084
1105,1052
1094,1024
1114,1044
1132,1037
1123,1073
1129,1053
1099,1046
1133,1041
1136,1046
1113,1035
1107,1063
1102,1022
1090,1033
1132,1025
1121,1061
1128,1071
1109,1076
1103,1055
1123,1062
1105,1039
1117,1034
1110,1037
1112,1040
1146,1045
1107,1065
1123,1058
1089,1044
1091,1024
1137,1032
1111,1044
1122,1052
1090,1028
1112,1069
1137,1057
1125,1045
1127,1035
1114,1045
1106,1042
1081,1059
1092,1035
1133,1041
1100,1026
1099,1037
1108,1035
1120,1025
1153,1047
1101,1077
1100,1050
1105,1035
1114,1052
1133,1036
1101,1080
1106,1025
1111,1050
1125,1029
1101,1042
1118,1054
1095,1050
1134,1044
1099,1047
1133,1035
1112,1094
1104,1044
1087,1031
1098,1028
1095,1042
1116,1050
1120,1044
1101,1049
1123,1057
1081,1044
1095,1028
1116,1020
1125,1034
1121,1072
1108,1067
1109,1031
1118,1050
1098,1018
1084,1051
1122,1060
1147,1054
1100,1045
1111,1042
1142,1049
1128,1062
1110,1061
1110,1051
1110,1030
1126,1056
1101,1054
1128,1035
1126,1053
1113,1042
1095,1029
1138,1030
1124,1049
1133,1058
1086,1045
1093,1038
1118,1038
1124,1050
1105,1053
1114,1039
1110,1080
1131,1035
1095,1040
1114,1055
1129,1029
1132,1043
1156,1067
1111,1076
1112,1026
1103,1072
1111,1032
1112,1044
1120,1046
1131,1037
1135,1082
1113,1057
1088,1037
1130,1025
1111,1028
1135,1057
1119,1066
1124,1055
1151,1047
1090,1059
1084,1028
1127,1031
1111,1031
1098,1035
1122,1038
1115,1025
1120,1041
1143,1059
1132,1073
1089,1019
1114,1024
1119,1059
1115,1046
1099,1038
1090,1068
1097,1014
1128,1041
1126,1045
1130,1061
1103,1059
1107,1054
1113,1057
1094,1040
1140,1034
1118,1068
1094,1060
1098,1044
1108,1037
1123,1054
1138,1045
1112,1056
1116,1029
1124,1053
1094,1053
1101,1046
1115,1042
1107,1042
1084,1040
1089,1035
1121,1053
1116,1049
1134,1063
1098,1070
1090,1037
1079,1046
1092,1049
1116,1049
1087,1034
1085,1049
1086,1000
1146,1049
1128,1055
1113,1051
1114,1038
1108,1043
1101,1058
1102,1047
1089,1045
1110,1054
1135,1032
1121,1066
1125,1066
1093,1037
1076,1033
1113,1018
1116,1050
1125,1051
1087,1051
1103,1048
1116,1047
1102,1046
1102,1047
1089,1043
1111,1031
1106,1029
1130,1063
1100,1060
1080,1028
1117,1048
1121,1041
1098,1051
1095,1045
1104,1017
1102,1056
1122,1031
1112,1062
1116,1024
1102,1055
1095,1027
1117,1049
1096,1037
1103,1061
1108,1025
1120,1049
1124,1074
1113,1033
1104,1039
1094,1044
1066,1039
1094,1016
1111,1032
1126,1048
1105,1078
1086,1054
1084,1033
1098,1038
1101,1044
1113,1042
1104,1046
1099,1040
1092,1057
1119,1047
1109,1049
1099,1033
1108,1042
1098,1031
1102,1044
1117,1054
1108,1027
1123,1025
1098,1053
1117,1048
1095,1050
1105,1041
1134,1048
1095,1063
1078,1051
1119,1023
1104,1050
1086,1050
1118,1052
1142,1056
1092,1034
1092,1035
1141,1047
1105,1059
1103,1070
1098,1030
1094,1035
1110,1034
1093,1052
1100,1050
1112,1039
1118,1055
1095,1092
1086,1037
1088,1013
1102,1022
1116,1047
1102,1070
1087,1018
1100,1041
1099,1043
1080,1043
1113,1043
1130,1039
1085,1032
1100,1028
1088,1023
1117,1033
1121,1054
1128,1057
1082,1044
1092,1026
1135,1064
1114,1063
1123,1048
1094,1043
1116,1062
1092,1044
1108,1037
1090,1025
1130,1058
1122,1042
1118,1054
1083,1043
1066,1046
1099,1045
1111,1040
1093,1045
1110,1051
1128,1024
1113,1057
1139,1053
1092,1059
1082,1036
1093,1031
1101,1032
1115,1039
1118,1065
1089,1043
1128,1046
1100,1040
1105,1060
1087,1025
1132,1030
1116,1063
1089,1037
1083,1057
1101,1055
1073,1032
1101,1052
1105,1040
1084,1043
1108,1061
1089,1047
1078,1034
1120,1023
1088,1017
1127,1053
1095,1055
1096,1039
1116,1065
1087,1042
1103,1042
1118,1053
1107,1048
1091,1040
1083,1018
1116,1034
1115,1045
1107,1067
1084,1055
1099,1042
1083,1034
1117,1027
1112,1056
1115,1017
1109,1040
1121,1042
1116,1074
1110,1054
1090,1036
1079,1024
1131,1026
1083,1058
1106,1040
1130,1048
1067,1029
1131,1033
1098,1034
1143,1054
1106,1067
1093,1057
1093,1032
1087,1033
1112,1045
1109,1044
1141,1045
1100,1052
1098,1052
1119,1046
1090,1045
1117,1069
1095,1052
1097,1046
1093,1026
1128,1046
1119,1059
1108,1041
1078,1033
1112,1037
1126,1036
1112,1028
1114,1053
1093,1052
1093,1032
1100,1029
1098,1030
1114,1055
1108,1048
1114,1054
1112,1050
1100,1044
1088,1063
1090,1047
1101,1036
1105,1017
1132,1044
1087,1060
1122,1050
1099,1044
1119,1043
1090,1043
1077,1043
1093,1052
1114,1044
1085,1052
1071,1033
1107,1020
1091,1015
1120,1049
1106,1063
1080,1037
1107,1037
1108,1051
1116,1049
1093,1033
1085,1067
1094,1049
1089,1025
1120,1041
1115,1036
1076,1039
1100,1017
1093,1030
1106,1046
1105,1073
1083,1040
1110,1029
1103,1033
1097,1038
1106,1022
1134,1066
1090,1046
1090,1053
1093,1025
1083,1050
1117,1045
1100,1046
1108,1043
1055,1059
1079,1036
1108,1039
1102,1052
1148,1061
1073,1023
1101,1045
1114,1054
1109,1039
1111,1044
1112,1056
1102,1058
1104,1038
1085,1051
1075,1041
1085,1022
1093,1019
1117,1045
1113,1055
1096,1082
1074,1046
1098,1017
1131,1033
1123,1049
1121,1041
1102,1047
1086,1031
1119,1047
1110,1048
1116,1062
1087,1034
1111,1047
1127,1064
1127,1048
1102,1041
1081,1045
1096,1081
1079,1026
1125,1037
1114,1014
1129,1050
1084,1072
1081,1044
1088,1036
1077,1040
1119,1071
1095,1029
1117,1040
1110,1043
1117,1059
1113,1055
1092,1046
1077,1027
1108,1044
1098,1027
1134,1036
1105,1041
1109,1056
1105,1030
1094,1024
1108,1041
1072,1052
1112,1052
1097,1038
1105,1046
1110,1064
1113,1024
1102,1060
1104,1033
1101,1053
1102,1043
1112,1042
1122,1057
1105,1054
1085,1033
1111,1043
1132,1044
1105,1044
1111,1056
1089,1045
1079,1029
1094,1037
1107,1040
1090,1041
1110,1051
1121,1038
1076,1043
1098,1037
1081,1035
1118,1016
1109,1042
1121,1054
1084,1031
1096,1025
1108,1038
1082,1057
1065,1033
1122,1021
1098,1036
1115,1053
1084,1047
1079,1032
1107,1038
1088,1019
1128,1054
1105,1057
1119,1030
1117,1045
1081,1031
1098,1038
1123,1040
1097,1046
1079,1050
1082,1032
1111,1019
1110,1036
1134,1045
1113,1051
1106,1037
1098,1027
1104,1058
1103,1063
1088,1043
1084,1046
1123,1023
1119,1043
1144,1067
1084,1064
1094,1040
1087,1031
1097,1033
1094,1039
1118,1058
1114,1058
1089,1035
1087,1033
1126,1031
1117,1051
1125,1068
1095,1048
1085,1029
1091,1045
1118,1051
1123,1034
1088,1044
1107,1029
1135,1040
1104,1061
1087,1048
1095,1020
1093,1025
1140,1045
1103,1067
1106,1033
1096,1045
1106,1048
1122,1065
1118,1040
1108,1041
1092,1064
1090,1059
1104,1030
1086,1018
1122,1027
1113,1060
1095,1054
1115,1045
1113,1061
1078,1038
1085,1016
1097,1028
1122,1043
1105,1051
1125,1058
1099,1040
1085,1048
1093,1043
1087,1023
1099,1066
1126,1033
1132,1032
1096,1068
1093,1049
1111,1066
1126,1039
1110,1054
1117,1068
1081,1044
1091,1027
1114,1044
1102,1040
1100,1050
1106,1015
1107,1020
1110,1050
1098,1057
1104,1051
1083,1044
1085,1015
1112,1039
1092,1031
1117,1064
1116,1052
1089,1039
1108,1033
1092,1027
1132,1063
1112,1045
1106,1052
1096,1054
1120,1058
1081,1046
1092,1046
1096,1020
1126,1030
1106,1051
1109,1046
1113,1070
1090,1050
1083,1035
1085,1002
1132,1046
1114,1064
1123,1065
1096,1026
1137,1065
1089,1032
1098,1038
1094,1037
1137,1047
1123,1060
1091,1032
1115,1044
1093,1048
1100,1049
1104,1059
1084,1052
1096,1037
1095,1032
1104,1051
1074,1037
1085,1014
1118,1040
1107,1047
1116,1063
1110,1074
1095,1043
1101,1029
1107,1037
1081,1044
1115,1042
1095,1034
1137,1047
1102,1048
1127,1052
1087,1042
1108,1030
1118,1050
1107,1035
1095,1055
1094,1050
1106,1056
1093,1036
1112,1035
1113,1055
1098,1047
1095,1039
1105,1044
1103,1044
1098,1043
1091,1060
1116,1046
1090,1040
1115,1042
1099,1039
1104,1044
1104,1044
1116,1048
1093,1033
1100,1043
1101,1047
1122,1034
1104,1037
1101,1055
1087,1026
1102,1052
1117,1063
1110,1028
1127,1049
1119,1054
1087,1053
1092,1028
1094,1016
1114,1036
1127,1034
1101,1065
1077,1039
1102,1056
1110,1049
1114,1044
1095,1076
1086,1026
1107,1025
1108,1037
1124,1044
1106,1070
1100,1051
1093,1048
1082,1028
1121,1047
1092,1053
1113,1046
1106,1028
1124,1038
1122,1041
1114,1062
1099,1022
1064,1038
1079,996
1116,1043
1096,1029
1095,1041
1113,1049
1120,1029
1111,1047
1079,1061
1066,1041
1106,1035
1105,1034
1140,1049
1083,1073
1078,1043
1110,1056
1110,1047
1093,1040
1102,1043
1115,1035
1097,1026
1109,1035
1116,1046
1120,1069
1096,1057
1076,1042
1088,1034
1102,1046
1093,1044
1105,1032
1093,1026
1128,1073
1116,1087
1090,1037
1086,1033
1102,1022
1118,1039
1111,1034
1116,1050
1088,1046
1081,1043
1118,1051
1106,1050
1089,1033
1107,1067
1109,1068
1075,1044
1075,1027
1118,1030
1108,1047
1104,1059
1117,1046
1106,1039
1091,1049
1090,1038
1086,1034
1088,1031
1121,1035
1111,1051
1114,1050
1073,1058
1081,1028
1114,1032
1084,1079
1060,1030
1087,1027
1110,1048
1094,1059
1117,1067
1118,1070
1091,1047
1097,1032
1085,1023
1119,1033
1102,1024
1122,1051
1097,1040
1118,1018
1121,1041
1127,1056
1088,1065
1073,1048
1091,1023
1113,1023
1113,1045
1108,1070
1095,1039
1128,1066
1085,1033
1100,1041
1093,1049
1079,1040
1114,1054
1098,1051
1087,1037
1091,1032
1123,1046
1119,1069
1118,1039
1128,1041
1104,1057
1123,1045
1117,1041
1113,1077
1097,1044
1081,1023
1110,1046
1100,1033
1120,1061
1081,1051
1113,1032
1116,1047
1094,1045
1095,1044
1080,1053
1118,1019
1083,1064
1087,1028
1109,1032
1115,1022
1123,1068
1114,1066
1090,1044
1122,1036
1116,1041
1072,1031
1091,1035
1133,1035
1103,1073
1122,1057
1078,1044
1089,1019
1123,1018
1118,1060
1120,1037
1087,1022
1118,1041
1119,1055
1123,1045
1116,1035
1115,1037
1083,1033
1112,1027
1131,1061
1115,1061
1097,1034
1106,1041
1109,1023
1088,1035
1120,1038
1116,1056
1107,1055
1083,1031
1105,1031
1105,1031
1130,1068
1104,1048
1093,1043
1108,1037
1109,1035
1082,1035
1115,1035
1129,1056
1103,1035
1097,1033
1116,1031
1115,1049
1099,1051
1068,1037
1092,1024
1105,1034
1110,1047
1137,1047
1086,1039
1086,1037
1100,1027
1124,1032
1114,1050
1109,1047
1082,1057
1069,1030
1113,1054
1090,1064
1105,1045
1081,1039
1118,1050
1111,1037
1118,1022
1124,1050
1090,1068
1085,1018
1129,1025
1108,1051
1104,1057
1109,1050
1115,1042
1092,1058
1079,1007
1121,1031
1112,1049
1106,1047
1097,1045
1082,1030
1117,1032
1112,1036
1120,1041
1130,1049
1090,1070
1095,1039
1114,1054
1118,1023
1121,1041
1119,1053
1103,1054
1071,1045
1118,1048
1094,1034
1099,1049
1108,1061
1114,1042
1090,1045
1122,1043
1118,1062
1109,1041
1076,1028
1086,1022
1108,1029
1118,1033
1119,1057
1114,1050
1116,1027
1101,1037
1084,1047
1100,1053
1081,1034
1107,1035
1127,1041
1108,1077
1083,1054
1096,1027
1103,1051
1131,1056
1112,1033
1107,1036
1105,1059
1127,1033
1094,1019
1120,1050
1098,1053
1084,1035
1123,1040
1087,1024
1136,1048
1113,1048
1107,1033
1097,1046
1079,1060
1095,1010
1115,1028
1121,1055
1117,1044
1076,1042
1085,1022
1107,1030
1131,1061
1105,1035
1083,1043
1109,1076
1125,1044
1081,1058
1108,1064
1104,1051
1088,1022
1089,1017
1128,1033
1119,1049
1123,1069
1106,1031
1094,1048
1106,1032
1094,1045
1080,1054
1081,1011
1106,1027
1112,1046
1115,1042
1101,1066
1081,1033
1102,1021
1107,1033
1116,1049
1118,1046
1106,1043
1114,1041
1096,1053
1091,1032
1092,1030
1099,1042
1114,1046
1100,1053
1115,1041
1085,1034
1124,1080
1125,1039
1086,1038
1103,1047
1098,1043
1071,1017
1093,1037
1089,1019
1123,1050
1115,1051
1095,1035
1119,1029
1107,1058
1094,1047
1104,1073
1102,1044
1095,1026
1105,1065
1110,1040
1097,1015
1134,1036
1121,1054
1113,1062
1091,1061
1091,1015
1094,1047
1099,1056
1106,1044
1118,1027
1110,1046
1102,1045
1077,1037
1140,1030
1122,1074
1102,1066
1119,1058
1108,1046
1117,1045
1086,1038
1107,1056
1106,1051
1090,1024
1132,1038
1114,1043
1125,1077
1087,1036
1085,1043
1096,1020
1110,1044
1114,1056
1139,1024
1113,1044
1104,1073
1089,1052
1079,1022
1101,1055
1106,1033
1137,1062
1088,1047
1141,1048
1121,1034
1121,1040
1087,1037
1100,1055
1120,1052
1084,1032
1088,1018
1110,1031
1122,1029
1106,1052
1105,1033
1098,1044
1120,1046
1103,1064
1081,1027
1080,1024
1114,1012
1114,1048
1125,1073
1074,1061
1070,1037
1109,1034
1085,1047
1084,1029
1103,1022
1126,1039
1096,1040
1107,1048
1090,1042
1102,1030
1106,1061
1121,1055
1076,1044
1095,1048
1096,1030
1124,1048
1123,1057
1094,1057
1110,1060
1090,1012
1094,1035
1133,1026
1107,1049
1124,1049
1084,1045
1079,1037
1103,1042
1103,1046
1107,1057
1121,1055
1088,1045
1107,1034
1080,1035
1113,1059
1140,1034
1138,1048
1097,1079
1071,1050
1103,1043
1095,1033
1118,1064
1130,1038
1102,1037
1136,1058
1107,1071
1088,1039
1103,1028
1099,1027
1130,1051
1091,1076
1095,1042
1098,1059
1094,1051
1096,1034
1118,1055
1130,1060
1087,1052
1079,1040
1107,1034
1124,1058
1099,1042
1113,1057
1095,1027
1115,1053
1088,1045
1086,1049
1081,1008
1114,1028
1120,1042
1120,1062
1104,1046
1087,1054
1118,1031
1105,1024
1114,1038
1093,1034
1102,1046
1090,1044
1107,1056
1095,1054
1107,1047
1112,1052
1106,1042
1106,1048
1105,1022
1091,1042
1107,1042
1096,1048
1115,1043
1113,1042
1104,1058
1091,1040
1120,1045
1103,1067
1087,1042
1090,1020
1115,1027
1120,1053
1109,1045
1089,1024
1112,1065
1094,1019
1100,1053
1135,1072
1080,1025
1077,1032
1123,1028
1095,1041
1103,1049
1106,1033
1099,1038
1106,1025
1110,1059
1079,1056
1078,1021
1106,1033
1121,1049
1116,1051
1101,1079
1099,1055
1078,1047
1090,1040
1102,1045
1078,1029
1098,1047
1112,1024
1118,1044
1095,1047
1103,1037
1120,1031
1104,1032
1112,1069
1101,1042
1102,1047
1085,1033
1123,1032
1091,1055
1129,1047
1072,1045
1086,1029
1079,1026
1137,1030
1109,1033
1127,1063
1092,1056
1104,1039
1116,1024
1108,1031
1120,1044
1105,1064
1101,1055
1106,1028
1083,1041
1123,1043
1108,1064
1118,1058
1087,1025
1099,1034
1100,1014
1107,1034
1104,1049
1085,1057
1086,1060
1126,1060
1083,1040
1084,1032
1125,1035
1106,1033
1136,1064
1104,1031
1127,1044
1117,1072
1114,1062
1082,1024
1095,1019
1115,1044
1102,1079
1119,1056
1087,1031
1094,1039
1117,1023
1116,1053
1097,1060
1094,1038
1095,1040
1090,1065
1109,1059
1093,1050
1122,1035
1115,1055
1125,1028
1107,1054
1111,1021
1120,1047
1113,1047
1089,1041
1116,1039
1117,1020
1126,1049
1102,1035
1094,1049
1098,1048
1085,1041
1131,1039
1099,1036
1090,1017
1102,1037
1098,1039
1109,1046
1134,1061
1084,1034
1100,1025
1085,1020
1123,1034
1115,1051
1121,1060
1103,1060
1090,1035
1097,1016
1113,1047
1106,1034
1079,1035
1129,1025
1114,1037
1118,1048
1102,1081
1101,1038
1092,1027
1097,1035
1107,1058
1107,1026
1079,1047
1091,1054
1115,1058
1116,1046
1087,1040
1082,1010
1118,1024
1115,1058
1132,1072
1101,1065
1127,1047
1110,1035
1115,1051
1134,1033
1097,1051
1101,1041
1086,1047
1107,1042
1086,1033
1135,1033
1107,1068
1111,1046
1108,1048
1121,1054
1122,1048
1090,1030
1104,1046
1118,1055
1100,1073
1086,1024
1108,1044
1117,1052
1132,1053
1122,1057
1111,1037
1106,1041
1106,1034
1115,1054
1100,1012
1141,1063
1114,1069
1107,1065
1101,1017
1094,1001
1135,1050
1111,1064
1117,1032
1086,1058
1098,1047
1111,1037
1081,1042
1113,1019
1101,1044
1103,1043
1127,1047
1107,1061
1090,1047
1089,1022
1124,1060
1087,1037
1098,1056
1122,1037
1111,1036
1115,1039
1132,1060
1121,1065
1090,1054
1081,1038
1110,1039
1108,1038
1106,1040
1102,1050
1116,1052
1085,1059
1102,1013
1135,1056
1118,1073
1117,1039
1093,1053
1115,1046
1112,1052
1118,1048
1094,1049
1125,1046
1102,1029
1120,1017
1121,1059
1126,1040
1104,1070
1076,1024
1110,1040
1122,1029
1130,1050
1108,1038
1105,1019
1103,1054
1112,1036
1128,1056
1126,1076
1094,1034
1095,1041
1128,1036
1101,1054
1121,1053
1087,1077
1113,1037
1105,1023
1125,1041
1106,1037
1121,1049
1107,1032
1117,1026
1117,1023
1129,1065
1096,1068
1088,1050
1111,1016
1091,1028
1116,1061
1110,1040
1126,1030
1139,1057
1109,1060
1100,1034
1123,1036
1117,1035
1142,1075
1111,1041
1107,1037
1117,1064
1095,1048
1102,1053
1100,1033
1128,1028
1129,1053
1157,1056
1111,1074
1112,1029
1118,1027
1134,1053
1161,1047
1108,1051
1144,1063
1116,1050
1135,1046
1145,1064
1128,1070
1122,1061
1108,1029
1160,1060
1138,1064
1122,1070
1132,1049
1122,1039
1147,1071
1117,1070
1124,1075
1127,1057
1136,1030
1157,1073
1142,1056
1113,1067
1117,1052
1097,1051
1123,1046
1133,1057
1094,1058
1125,1055
1165,1060
1133,1048
1150,1056
1130,1089
1103,1054
1108,1049
1114,1047
1155,1056
1106,1067
1133,1045
1132,1062
1121,1065
1111,1057
1101,1080
1122,1070
1103,1041
1131,1051
1125,1044
1144,1085
1134,1081
1108,1067
1145,1061
1133,1061
1088,1052
1116,1072
1111,1046
1128,1053
1109,1050
1145,1051
1137,1051
1119,1076
1125,1050
1110,1035
1108,1039
1117,1070
1129,1057
1124,1057
1097,1053
1112,1057
1123,1044
1128,1082
1116,1062
1094,1034
1113,1052
1118,1038
1123,1055
1124,1058
1122,1042
1101,1055
1119,1043
1142,1045
1119,1054
1114,1084
1101,1045
1087,1039
1118,1037
1112,1052
1142,1074
1114,1037
1122,1037
1105,1046
1122,1052
1125,1044
1102,1061
1106,1056
1103,1035
1112,1038
1117,1031
1130,1057
1117,1044
1093,1064
1118,1068
1119,1054
1114,1046
1113,1055
1102,1043
1124,1050
1096,1044
1119,1055
1116,1060
1121,1049
1108,1075
1098,1043
1122,1051
1092,1036
1124,1068
1123,1051
1107,1053
1096,1051
1088,1043
1121,1026
1108,1049
1130,1051
1098,1045
1106,1052
1103,1080
1108,1056
1090,1047
1085,1038
1122,1042
1102,1063
1117,1064
1100,1061
1088,1047
1092,1046
1094,1028
1100,1040
1123,1073
1105,1044
1088,1036
1102,1035
1099,1028
1129,1047
1120,1066
1114,1064
1095,1024
1101,1048
1088,1026
1099,1039
1083,1030
1115,1020
1114,1029
1096,1079
1112,1057
1072,1054
1087,1024
1104,1037
1122,1049
1123,1034
1105,1050
1073,1039
1119,1024
1121,1065
1113,1058
1095,1043
1097,1037
1101,1052
1103,1046
1118,1057
1096,1074
1108,1050
1120,1064
1080,1032
1108,1046
1110,1038
1109,1054
1100,1061
1090,1022
1117,1047
1094,1031
1118,1065
1118,1069
1102,1042
1120,1052
1127,1053
1116,1043
1139,1064
1079,1036
1089,1038
1111,1029
1099,1040
1109,1048
1108,1031
1125,1041
1115,1035
1116,1033
1110,1062
1098,1045
1099,1039
1140,1053
1108,1073
1112,1058
1088,1034
1088,1048
1110,1030
1113,1049
1088,1044
1107,1036
1109,1049
1110,1053
1109,1070
1079,1046
1105,1029
1140,1037
1119,1077
1097,1046
1105,1053
1116,1037
1096,1044
1096,1042
1117,1050
1103,1031
1097,1045
1101,1042
1100,1050
1072,1048
1120,1050
1085,1048
1112,1037
1132,1042
1094,1040
1099,1023
1118,1067
1107,1048
1104,1041
1086,1035
1102,1029
1104,1038
1142,1050
1102,1082
1106,1056
1104,1042
1102,1041
1124,1054
1118,1054
1095,1039
1086,1042
1095,1031
1118,1034
1118,1042
1123,1064
1090,1065
1100,1040
1101,1034
1095,1061
1104,1031
1121,1049
1071,1044
1112,1050
1119,1061
1088,1037
1084,1028
1125,1031
1082,1034
1115,1044
1122,1038
1117,1057
1110,1052
1114,1038
1103,1055
1134,1064
1100,1071
1073,1032
1077,1022
1108,1031
1132,1031
1105,1070
1111,1037
1105,1033
1100,1046
1102,1044
1102,1058
1092,1064
1084,1032
1111,1022
1104,1029
1143,1061
1088,1057
1106,1045
1086,1042
1111,1048
1128,1047
1087,1037
1122,1072
1096,1060
1100,1047
1091,1031
1123,1047
1108,1051
1130,1062
1101,1043
1114,1044
1111,1061
1083,1050
1115,1035
1102,1026
1115,1053
1095,1041
1098,1085
1087,1036
1106,1045
1106,1031
1127,1055
1115,1058
1101,1054
1118,1056
1098,1064
1120,1044
1101,1024
1140,1050
1106,1049
1123,1075
1103,1042
1087,1031
1109,1045
1098,1049
1111,1061
1097,1055
1117,1060
1104,1047
1111,1047
1114,1055
1128,1062
1086,1071
1090,1027
1104,1020
1121,1057
1122,1041
1111,1066
1113,1041
1094,1030
1100,1051
1104,1043
1120,1076
1118,1054
1094,1074
1082,1031
1132,1036
1114,1029
1107,1049
1098,1042
1133,1051
1110,1044
1134,1062
1108,1067
1126,1068
1102,1061
1105,1082
1102,1059
1113,1068
1110,1066
1112,1030
1115,1040
1119,1059
1097,1062
1128,1065
1123,1055
1094,1042
1121,1062
1111,1057
1122,1028
1133,1073
1131,1067
1103,1033
1096,1072
1126,1059
1116,1070
1137,1062
1092,1032
1123,1059
1116,1055
1121,1067
1125,1094
1097,1052
1134,1023
1132,1062
1114,1084
1127,1055
1122,1033
1095,1071
1101,1076
1130,1058
1139,1060
1121,1076
1126,1067
1092,1063
1102,1037
1104,1061
1105,1055
1137,1077
1108,1076
1098,1055
1088,1032
1145,1043
1141,1070
1128,1073
1081,1056
1087,1036
1109,1046
1115,1048
1109,1094
1119,1032
1097,1060
1117,1024
1113,1046
1112,1060
1100,1066
1097,1049
1096,1035
1137,1044
1113,1061
1125,1055
1119,1052
1114,1055
1110,1034
1142,1061
1104,1085
1103,1052
1089,1039
1089,1030
1138,1047
1101,1066
1105,1050
1109,1067
1122,1037
1105,1057
1091,1039
1125,1055
1095,1055
1108,1064
1106,1048
1134,1042
1124,1057
1103,1075
1108,1052
1097,1031
1122,1059
1096,1069
1133,1066
1113,1065
1110,1038
1097,1030
1097,1030
1146,1062
1119,1053
1112,1062
1102,1044
1092,1037
1127,1042
1114,1058
1132,1045
1127,1054
1141,1050
1094,1045
1119,1053
1138,1058
1101,1041
1140,1051
1104,1054
1109,1080
1082,1018
1094,1049
1094,1037
1124,1073
1097,1071
1069,1044
1117,1031
1106,1026
1147,1056
1113,1062
1123,1037
1086,1055
1133,1060
1130,1052
1099,1022
1136,1054
1111,1070
1122,1075
1111,1036
1114,1052
1113,1052
1133,1066
1111,1051
1105,1042
1119,1048
1093,1066
1099,1027
1087,1050
1107,1024
1090,1016
1141,1042
1122,1053
1136,1078
1091,1050
1092,1049
1112,1041
1129,1027
1103,1060
1115,1061
1088,1049
1098,1032
1125,1040
1112,1063
1105,1028
1098,1040
1118,1037
1112,1048
1113,1065
1121,1043
1109,1038
1105,1049
1114,1055
1087,1046
1089,1035
1122,1027
1104,1054
1124,1058
1102,1078
1103,1047
1081,1020
1107,1050
1116,1032
1131,1058
1090,1058
1075,1056
1102,1018
1096,1034
1130,1049
1100,1052
1103,1051
1103,1052
1115,1039
1109,1049
1094,1039
1141,1023
1091,1074
1082,1049
1086,1045
1087,1029
1116,1015
1115,1054
1115,1057
1094,1027
1104,1056
1100,1043
1110,1044
1119,1052
1121,1038
1111,1045
1125,1049
1097,1034
1072,1038
1112,1030
1101,1059
1089,1024
1088,1024
1091,1038
1118,1066
1089,1043
1097,1029
1105,1037
1129,1046
1117,1071
1085,1043
1094,1039
1121,1035
1111,1055
1121,1028
1092,1020
1103,1069
1091,1017
1109,1032
1125,1051
1121,1060
1100,1078
1072,1050
1098,1033
1107,1040
1121,1052
1104,1061
1100,1057
1113,1027
1108,1044
1101,1047
1102,1043
1098,1047
1121,1045
1099,1043
1112,1035
1117,1059
1105,1049
1088,1054
1095,1039
1104,1025
1100,1074
1090,1043
1095,1049
1088,1028
1137,1039
1079,1047
1122,1045
1090,1039
1086,1049
1105,1045
1107,1035
1097,1037
1103,1068
1109,1045
1098,1019
1130,1036
1118,1053
1113,1062
1105,1043
1109,1041
1105,1039
1128,1048
1098,1054
1104,1037
1136,1053
1098,1096
1083,1047
1083,1020
1116,1025
1140,1045
1111,1060
1104,1034
1117,1039
1087,1054
1107,1043
1102,1033
1101,1046
1100,1019
1130,1055
1125,1053
1118,1090
1086,1036
1074,1046
1092,1061
1093,1035
1149,1068
1109,1064
1117,1056
1112,1046
1111,1071
1098,1046
1089,1050
1099,1040
1145,1061
1136,1064
1129,1055
1110,1082
1132,1074
1150,1078
1131,1070
1105,1078
1150,1070
1140,1099
1099,1067
1131,1068
1125,1042
1150,1072
1130,1081
1146,1109
1131,1094
1163,1081
1129,1100
1134,1085
1132,1095
1146,1086
1167,1118
1186,1126
1157,1141
1156,1105
1181,1128
1192,1110
1190,1161
1217,1140
1193,1160
1206,1135
1201,1148
1219,1156
1186,1182
1212,1178
1222,1192
1212,1185
1251,1190
1277,1189
1274,1206
1287,1210
1274,1223
1274,1240
1296,1230
1356,1250
1341,1279
1361,1322
1353,1303
1362,1304
1379,1327
1386,1348
1418,1387
1434,1386
1430,1396
1428,1384
1482,1395
1510,1442
1493,1445
1495,1455
1543,1477
1554,1506
1550,1520
1566,1527
1623,1544
1618,1579
1651,1607
1670,1635
1710,1646
1724,1679
1763,1716
1780,1744
1822,1775
1847,1793
1895,1839
1916,1869
1954,1912
1986,1931
2031,1962
2089,2036
2129,2075
2152,2148
2218,2164
2250,2208
2330,2265
2398,2327
2425,2378
2455,2412
2544,2490
2603,2546
2658,2620
2738,2670
2806,2776
2876,2843
2943,2926
3009,2994
3140,3067
3232,3194
3291,3296
3370,3349
3447,3398
3540,3462
3610,3548
3645,3613
3743,3733
3803,3770
3865,3821
3965,3931
4073,4028
4110,4107
4234,4193
4309,4295
4387,4387
4530,4506
4621,4624
4730,4758
4873,4889
5066,5027
5219,5190
5392,5426
5555,5576
5747,5766
5971,5985
6206,6211
6438,6488
6715,6747
7016,7073
7367,7393
7742,7773
8095,8195
8525,8615
8966,9050
9418,9531
9906,9991
10329,10430
10730,10886
11169,11304
11619,11738
12014,12196
12405,12567
12807,12959
13139,13313
13493,13675
13814,14044
14154,14401
14575,14811
14958,15239
15347,15643
15716,16021
16119,16426
16552,16915
17035,17382
17592,17975
18220,18617
18807,19243
19411,19842
19955,20378
20376,20822
20703,21108
20922,21357
21054,21486
21086,21495
21031,21450
20844,21252
20544,20945
20115,20514
19612,19988
19053,19419
18411,18797
17863,18220
17342,17702
16843,17233
16475,16866
16178,16596
16052,16443
15995,16413
16034,16460
16201,16640
16433,16880
16799,17235
17112,17557
17417,17864
17700,18178
17984,18465
18186,18683
18369,18861
18523,18999
18638,19093
18730,19201
18872,19363
19018,19522
19157,19660
19314,19830
19496,19992
19680,20187
19908,20430
20161,20689
20436,20979
20709,21241
21024,21553
21392,21896
21732,22304
22160,22728
22680,23238
23256,23836
23939,24499
24674,25246
25490,26079
26391,26954
27313,27910
28346,28915
29311,29907
30342,30924
31367,31889
32451,32952
33559,34033
34594,35075
35646,36088
36660,37054
37613,37950
38376,38686
38980,39223
39481,39698
39973,40116
40498,40618
41041,41152
41669,41756
42413,42472
43319,43320
44435,44375
45651,45525
46843,46665
47888,47634
48686,48378
49315,48937
49733,49291
49982,49480
49971,49403
49618,49018
49008,48392
48266,47676
47483,46901
46660,46028
45887,45254
45086,44507
44458,43867
43928,43423
43615,43095
43488,42928
43498,42952
43670,43078
43890,43322
44157,43535
44385,43727
44639,43952
44936,44220
45350,44586
45812,45033
46275,45485
46768,45893
47206,46343
47726,46786
48275,47270
48639,47576
48698,47626
48532,47397
48231,47049
48018,46830
48008,46814
48278,47084
48794,47573
49610,48336
50704,49353
51982,50626
53450,52036
55202,53730
57379,55825
60018,58386
63125,61354
66461,64617
69948,67872
73539,71231
77097,74613
80681,77879
83967,80963
87038,83677
89697,86032
92096,88137
94426,90033
96586,91763
98461,93099
99906,93922
100789,93961
100940,93172
100125,91223
98170,87926
94823,83011
91229,78687
92794,80090
97140,83584
100946,86369
103988,88502
106585,90309
108650,91690
110079,92666
111274,93310
112521,93812
113245,94114
113863,94365
114421,94574
114987,94812
115667,95059
116158,95205
116595,95372
116943,95485
117456,95661
117943,95854
118237,95967
118519,96043
118772,96113
119115,96267
119466,96417
119634,96487
119818,96495
119981,96526
120263,96645
120566,96794
120719,96822
120864,96851
120977,96892
121304,96987
121643,97165
121818,97236
121941,97253
122099,97284
122423,97421
122701,97590
122859,97628
123030,97686
123130,97701
123452,97838
123756,97982
123920,98005
124138,98047
124278,98054
124623,98268
124931,98297
125076,98329
125264,98378
125353,98402
125709,98585
125910,98702
126072,98728
126256,98806
126270,98808
126516,98913
126718,99023
126788,99019
126899,99057
126903,99029
127155,99159
127313,99237
127338,99264
127426,99267
127410,99249
127666,99408
127821,99438
127813,99460
127848,99419
127883,99401
128124,99524
128258,99607
128270,99596
128321,99603
128340,99585
128551,99722
128706,99755
128718,99761
128768,99763
128801,99778
128999,99870
129113,99934
129156,99922
129221,99932
129276,99929
129434,100056
129578,100105
129593,100103
129647,100077
129689,100118
129886,100231
129980,100254
130000,100237
130030,100278
130100,100300
130290,100414
130385,100462
130434,100476
130455,100483
130530,100518
130683,100571
130749,100560
130741,100584
130763,100576
130807,100600
130961,100677
130992,100649
130981,100655
130993,100667
131011,100712
130966,100786
130990,100778
131035,100791
131006,100784
131039,100844
131194,100867
131236,100867
131252,100896
131253,100895
131316,100969
131476,101014
131485,101040
131470,101031
131424,101026
131544,101071
131704,101145
131666,101122
131603,101067
131542,101076
131591,101064
131725,101115
131613,101104
131572,101054
131455,101042
131511,101047
131579,101064
131515,101032
131461,101015
131372,100969
131431,101026
131464,101032
131392,101012
131287,100958
131200,100912
131237,100921
131298,100946
131192,100918
131068,100871
130951,100793
130989,100861
131018,100871
130941,100803
130939,100791
130819,100799
130930,100841
131020,100864
130968,100854
130932,100860
130851,100876
131035,100954
131139,101021
131123,101059
131136,101089
131098,101086
131245,101194
131342,101204
131311,101185
131344,101206
131274,101177
131476,101256
131556,101288
131513,101280
131493,101265
131503,101257
131662,101351
131735,101356
131707,101353
131715,101333
131682,101329
131828,101416
131868,101411
131849,101390
131821,101391
131782,101365
131887,101412
131960,101441
131897,101402
131838,101354
131789,101346
131999,101417
131998,101443
131944,101392
131898,101378
131844,101371
132030,101420
132051,101428
132019,101416
131915,101389
131901,101388
132106,101420
132140,101459
132075,101433
131986,101387
131990,101379
132179,101477
132145,101461
132111,101444
132033,101397
132001,101391
132170,101458
132140,101438
132067,101424
131991,101365
131982,101354
132185,101449
132145,101436
132086,101401
132027,101357
132052,101385
132219,101458
132144,101445
132098,101424
132049,101385
132118,101403
132240,101477
132184,101456
132130,101440
132051,101401
132107,101411
132279,101459
132249,101428
132204,101469
132110,101400
132190,101451
132357,101529
132290,101471
132273,101449
132242,101454
132313,101486
132443,101538
132409,101514
132370,101501
132280,101465
132382,101501
132500,101540
132461,101536
132473,101513
132380,101511
132485,101533
132549,101540
132507,101518
132494,101527
132391,101469
132536,101543
132681,101595
132647,101597
132601,101558
132510,101537
132654,101597
132789,101613
132722,101609
132631,101605
132536,101543
132714,101580
132785,101623
132714,101621
132645,101585
132575,101522
132712,101575
132842,101640
132781,101612
132730,101630
132617,101577
132778,101639
132911,101685
132382,101501
132808,101623
132701,101626
132903,101679
132964,101712
132920,101686
132846,101666
132743,101628
132897,101682
132915,101680
132832,101645
132683,101610
132583,101576
132723,101594
132726,101591
132580,101555
132450,101492
132301,101454
132447,101502
132422,101462
132323,101410
132168,101367
132042,101331
132183,101359
132142,101346
132055,101330
131903,101260
131768,101231
131944,101293
131901,101250
131789,101201
131694,101185
131617,101156
131791,101198
131791,101219
131688,101181
131577,101151
131535,101136
131704,101172
131718,101213
131656,101155
131508,101146
131517,101142
131704,101175
131711,101183
131632,101158
131501,101138
131577,101142
131747,101202
131684,101199
131660,101160
131584,101165
131598,101166
131793,101196
131776,101219
131746,101218
131575,101166
131698,101183
131864,101265
131829,101234
131780,101226
131668,101214
131777,101234
131958,101295
131904,101275
131855,101269
131718,101226
131828,101247
132014,101291
131982,101296
131918,101279
131779,101246
131904,101269
132020,101307
131997,101300
131933,101273
131788,101247
131906,101248
132034,101279
131967,101261
131953,101274
131792,101233
131933,101266
132054,101311
131994,101273
131930,101269
131811,101220
131922,101242
132077,101306
132005,101297
131941,101274
131811,101206
131966,101266
132095,101305
132038,101303
131966,101261
131820,101222
131971,101274
132070,101307
132014,101251
131902,101224
131797,101173
131994,101235
132047,101296
131994,101254
131928,101238
131836,101193
132014,101257
132102,101283
132038,101261
131979,101241
131907,101218
132067,101278
132168,101301
132114,101293
132046,101299
131947,101234
132152,101295
132224,101327
132191,101320
132106,101302
132039,101286
132211,101322
132267,101318
132206,101310
132202,101279
132110,101294
132295,101365
132300,101327
132261,101319
132224,101301
132193,101297
132369,101376
132371,101380
132328,101374
132248,101323
132235,101316
132453,101396
132427,101394
132375,101365
132322,101307
132337,101325
132526,101415
132506,101398
132467,101402
132358,101365
132376,101375
132579,101436
132586,101406
132554,101411
132423,101400
132449,101389
132625,101414
132653,101437
132604,101427
132475,101374
132515,101386
132686,101450
132662,101435
132623,101420
132485,101387
132546,101421
132660,101439
132613,101389
132504,101350
132411,101330
132411,101348
132511,101372
132388,101292
132298,101282
132151,101213
132181,101211
132277,101243
132132,101230
132045,101194
131821,101091
131863,101078
131956,101096
131823,101091
131700,101050
131526,100976
131577,100999
131631,101013
131567,100992
131474,100959
131300,100871
131398,100910
131512,100987
131404,100957
131299,100906
131214,100872
131328,100924
131410,100955
131329,100934
131297,100911
131135,100892
131251,100917
131361,100939
131311,100935
131271,100935
131123,100931
131280,100921
131402,100952
131342,100944
131293,100922
131185,100935
131331,100946
131410,100989
131397,100981
131327,100957
131199,100948
131357,100976
131491,101012
131397,101007
131354,100986
131245,100928
131445,101012
131485,101033
131434,101029
131344,100978
131265,100921
131489,100998
131558,101048
131461,101004
131359,100987
131310,100945
131545,101046
131598,101050
131530,101001
131454,101013
131356,100984
131562,101032
131619,101058
131539,100990
131456,100974
131392,100980
131597,101036
131570,101052
131477,100980
131447,100982
131321,100949
131549,100998
131505,100974
131438,100974
131293,100904
131307,100880
131482,100935
131507,100969
131363,100916
131226,100882
131254,100865
131408,100918
131399,100926
131354,100887
131235,100844
131230,100861
131399,100933
131416,100889
131333,100888
131246,100856
131273,100871
131440,100932
131427,100892
131349,100889
131253,100833
131310,100855
131489,100919
131442,100930
131425,100907
131319,100907
131381,100882
131537,100950
131524,100947
131471,100935
131351,100896
131433,100899
131605,100979
131564,100976
131521,100923
131386,100880
131508,100943
131657,101020
131583,100951
131557,100935
131404,100905
131586,100939
131708,100991
131640,100978
131628,100941
131477,100892
131593,100947
131742,100972
131700,100975
131655,100983
131516,100960
131648,100942
131793,100999
131755,100970
131746,100973
131588,100917
131757,100995
131917,101049
131840,101036
131823,100997
131716,100941
131898,101014
131992,101083
131939,101037
131928,101042
131781,101008
131954,101052
132088,101077
132012,101078
131946,101049
131838,101005
132025,101057
132061,101118
131992,101025
131937,101007
131792,100983
131947,101018
131950,101040
131883,100979
131750,100942
131607,100881
131686,100897
131702,100929
131559,100856
131412,100810
131257,100728
131433,100793
131366,100790
131244,100729
131093,100663
130995,100638
131094,100655
131070,100690
130989,100643
130865,100603
130716,100542
130890,100590
130889,100572
130786,100573
130679,100537
130593,100478
130768,100545
130743,100528
130668,100530
130592,100494
130566,100466
130699,100543
130679,100529
130660,100501
130580,100464
130545,100484
130734,100547
130751,100553
130712,100551
130638,100514
130619,100521
130813,100588
130818,100603
130769,100563
130686,100528
130726,100535
130879,100630
130844,100618
130766,100572
130663,100544
130744,100570
130889,100607
130864,100629
130827,100568
130700,100538
130762,100572
130902,100620
130918,100608
130852,100600
130719,100562
130828,100579
130960,100645
130949,100614
130885,100609
130778,100550
130874,100584
131016,100636
130946,100631
130869,100580
130811,100553
130891,100576
131016,100634
130976,100626
130914,100603
130830,100562
130934,100599
131049,100649
131018,100605
130969,100612
130839,100563
130978,100620
131078,100668
131039,100623
130982,100604
130876,100589
130996,100621
131110,100673
131038,100628
130965,100598
130877,100567
131007,100610
131089,100641
131049,100636
130971,100587
130857,100551
131000,100606
131095,100670
131037,100644
130961,100616
130865,100568
131032,100590
131088,100640
131048,100631
131032,100595
130859,100585
131032,100587
131121,100652
131078,100647
131024,100601
130900,100558
131098,100612
131185,100647
131099,100637
131035,100587
130988,100581
131182,100628
131205,100659
131184,100661
131125,100652
131053,100622
131212,100644
131225,100660
131212,100653
131162,100621
131076,100595
131247,100649
131292,100690
131254,100639
131231,100627
131166,100650
131320,100673
131338,100695
131291,100639
131279,100646
131218,100636
131354,100699
131402,100710
131351,100672
131295,100658
131275,100650
131446,100731
131427,100696
131402,100671
131329,100630
131376,100657
131510,100744
131502,100734
131451,100708
131398,100671
131402,100666
131591,100734
131560,100739
131514,100720
131403,100656
131422,100640
131572,100726
131511,100680
131406,100659
131284,100590
131281,100598
131362,100629
131252,100565
131161,100539
130980,100499
131005,100470
131049,100518
130995,100448
130870,100433
130717,100361
130726,100365
130784,100416
130671,100355
130564,100332
130403,100256
130411,100259
130483,100279
130354,100243
130261,100196
130095,100140
130186,100153
130233,100212
130147,100177
130071,100112
129929,100044
130002,100114
130092,100138
129994,100109
129952,100088
129813,100041
129927,100062
130011,100103
129969,100079
129877,100053
129757,100003
129885,100028
129969,100082
129881,100045
129857,100049
129739,99992
129897,100048
129970,100095
129898,100058
129839,100040
129775,100008
129982,100082
130024,100114
129991,100096
129979,100083
129876,100056
130050,100107
130136,100126
130137,100131
130056,100106
129998,100095
130145,100157
130210,100182
130168,100163
130126,100155
130084,100104
130212,100189
130302,100212
130226,100192
130196,100165
130152,100111
130314,100220
130353,100246
130276,100212
130229,100140
130183,100122
130332,100214
130348,100223
130311,100200
130255,100163
130203,100164
130343,100214
130368,100215
130347,100187
130261,100171
130222,100138
130377,100242
130381,100249
130320,100207
130263,100169
130253,100139
130412,100279
130373,100229
130324,100204
130223,100170
130222,100139
130399,100239
130395,100249
130330,100216
130241,100153
130272,100161
130426,100282
130365,100235
130352,100199
130229,100151
130277,100143
130453,100252
130438,100245
130348,100239
130298,100152
130326,100175
130488,100254
130429,100231
130399,100217
130322,100159
130359,100196
130523,100298
130444,100272
130435,100221
130361,100169
130450,100232
130565,100311
130537,100287
130472,100230
130426,100195
130515,100231
130609,100303
130599,100294
130580,100268
130465,100223
130582,100274
130671,100330
130625,100295
130616,100256
130516,100226
130627,100303
130731,100348
130662,100313
130662,100287
130573,100213
130667,100282
130781,100354
130744,100351
130681,100275
130641,100213
130769,100299
130844,100375
130787,100353
130773,100314
130689,100244
130838,100321
130894,100380
130859,100356
130837,100301
130782,100275
130901,100374
130960,100397
130906,100384
130876,100322
130793,100259
130884,100347
130944,100367
130821,100302
130721,100267
130600,100194
130676,100258
130644,100252
130511,100194
130421,100117
130296,100038
130343,100142
130317,100127
130188,100077
130046,100022
129898,99925
129973,99986
129939,99988
129808,99925
129682,99852
129584,99778
129670,99905
129601,99894
129494,99815
129397,99731
129301,99705
129409,99785
129411,99781
129320,99729
129215,99672
129127,99654
129298,99764
129251,99745
129189,99695
129115,99654
129077,99634
129237,99727
130600,100194
129141,99725
129075,99648
129055,99657
129210,99753
129199,99718
129139,99705
129060,99638
129111,99648
129222,99767
129172,99726
129145,99712
129084,99645
129108,99662
129235,99759
129246,99753
129190,99702
129139,99682
129175,99708
129296,99807
129282,99764
129269,99716
129216,99692
129290,99721
129427,99828
129398,99801
129361,99787
129297,99732
129324,99757
129511,99856
129442,99827
129422,99793
129323,99743
129403,99753
129527,99867
129462,99837
129428,99769
129334,99731
129421,99768
129492,99852
129468,99809
129406,99800
129349,99716
129432,99774
129496,99829
129449,99790
129439,99771
129289,99695
129434,99762
129501,99828
129438,99773
129417,99762
129300,99708
129393,99760
129509,99828
129477,99780
129417,99784
129313,99721
129445,99784
129518,99825
129487,99794
129437,99807
129342,99687
129489,99787
129531,99830
129500,99789
129447,99774
129366,99719
129469,99811
129563,99808
129499,99777
129482,99778
129404,99697
129530,99787
129588,99873
129558,99789
129515,99774
129451,99730
129581,99843
129627,99852
129637,99824
129584,99799
129523,99741
129675,99862
129731,99875
129713,99846
129622,99800
129612,99763
129776,99888
129776,99899
129789,99886
129756,99853
129711,99797
129860,99911
129899,99964
129839,99917
129818,99865
129777,99838
129956,99944
129978,99947
129922,99956
129866,99875
129834,99853
130028,99944
130042,99991
130020,99947
129941,99921
129936,99889
130099,99986
130115,100007
130075,99970
130027,99943
130058,99938
130202,100052
130190,100000
130164,99993
130097,99952
130135,99933
130259,100031
130250,100045
130183,100017
130086,99934
130090,99945
130219,100005
130144,99945
130102,99919
129954,99874
129908,99841
129953,99924
129890,99855
129789,99816
129668,99746
129631,99762
129688,99817
129566,99745
129471,99698
129322,99613
129310,99649
129332,99720
129248,99632
129111,99585
128964,99471
128991,99543
129016,99577
128937,99512
128799,99475
128705,99411
128756,99437
128831,99526
128702,99478
128639,99442
128537,99357
128610,99392
128678,99476
128635,99455
128577,99406
128439,99312
128572,99391
128616,99450
128552,99419
128503,99373
128468,99327
128552,99386
128627,99480
128571,99433
128568,99398
128430,99348
128594,99436
128695,99501
128655,99478
128582,99435
128504,99362
128661,99463
128764,99500
128744,99479
128694,99485
128614,99408
128759,99487
128834,99538
128812,99538
128792,99509
128754,99451
128905,99555
128931,99597
128896,99559
128905,99542
128841,99504
128958,99594
129008,99610
128996,99572
128962,99550
128879,99485
129032,99596
129073,99643
129012,99588
128950,99560
128902,99507
129002,99614
129077,99605
129024,99586
128987,99550
128902,99527
129032,99604
129069,99605
129020,99581
128958,99554
128928,99546
129056,99635
129052,99573
129053,99568
129001,99552
128931,99527
129053,99633
129057,99592
129043,99592
128941,99530
128958,99501
129084,99622
129076,99606
129023,99604
128957,99552
128944,99554
129073,99617
129107,99607
129045,99577
128994,99554
128992,99556
129148,99629
129125,99626
129060,99599
129006,99563
129023,99543
129189,99632
129191,99626
129150,99621
129091,99594
129100,99586
129270,99670
129236,99662
129228,99649
129149,99593
129205,99623
129341,99713
129293,99674
129257,99648
129209,99567
129286,99648
129421,99751
129350,99699
129308,99691
129266,99601
129363,99669
129493,99748
129411,99716
129414,99674
129344,99654
129424,99693
129511,99744
129540,99728
129498,99710
129425,99688
129531,99738
129623,99799
129614,99741
129576,99755
129512,99701
129629,99767
129717,99832
129681,99804
129659,99799
129564,99716
129713,99796
129809,99895
129765,99812
129745,99803
129666,99744
129765,99820
129811,99869
129789,99838
129682,99793
129567,99706
129670,99768
129653,99772
129552,99731
129473,99664
129320,99619
129355,99658
129320,99655
129208,99603
129093,99528
128923,99461
128976,99518
128975,99524
128807,99447
128683,99384
128595,99314
128662,99405
128569,99423
128439,99328
128341,99270
128219,99224
128302,99289
128261,99306
128166,99228
128033,99196
127978,99118
128084,99218
128084,99253
127972,99174
127885,99142
127848,99095
127956,99222
127944,99166
127902,99163
127846,99133
127792,99102
127930,99173
127928,99163
127887,99144
127838,99099
127813,99122
127960,99195
127946,99179
127919,99175
127845,99126
127854,99120
128024,99232
128000,99224
127970,99189
127918,99127
128004,99158
128121,99250
128101,99259
128091,99223
128055,99198
128068,99229
128251,99314
128251,99287
128216,99253
128159,99215
128187,99236
128343,99331
128337,99294
128338,99291
128247,99249
128264,99299
128407,99347
128397,99320
128345,99313
128250,99263
128320,99281
128448,99368
128383,99324
128343,99317
128258,99236
128354,99284
128433,99362
128388,99338
128361,99301
128242,99256
128320,99268
128437,99342
128410,99336
128332,99305
128260,99226
128353,99288
128417,99338
128367,99318
128336,99279
128269,99240
128330,99274
128415,99357
128369,99291
128328,99282
128251,99230
128368,99297
128449,99353
128371,99324
128351,99277
128264,99230
128448,99352
128477,99383
128432,99345
128378,99311
128313,99246
128484,99328
128554,99396
128493,99377
128436,99320
128409,99256
128524,99380
128613,99422
128557,99389
128545,99335
128475,99280
128574,99388
128674,99414
128628,99379
128614,99370
128525,99328
128668,99407
128731,99397
128723,99396
128695,99409
128655,99357
128808,99441
128888,99479
128843,99458
128820,99436
128805,99400
128934,99506
128971,99531
128941,99459
128926,99452
128939,99419
129048,99555
129089,99571
129076,99529
129051,99507
129042,99477
129203,99579
129247,99613
129208,99603
129173,99569
129152,99545
129342,99641
129373,99639
129346,99656
129264,99604
129285,99572
129426,99667
129458,99667
129394,99665
129310,99610
129283,99568
129367,99649
129340,99616
129232,99581
129126,99540
129069,99492
129143,99549
129073,99523
128947,99472
128792,99404
128767,99355
128763,99433
128686,99351
128570,99314
128440,99245
128365,99250
128380,99306
128276,99226
128181,99168
128033,99095
127989,99109
128050,99174
127922,99095
127842,99103
127728,98995
127768,99033
127832,99120
127726,99091
127674,99009
127596,98968
127652,99013
127704,99082
127636,99019
127603,99011
127502,98964
127603,98993
127695,99058
127683,99040
127630,99053
127563,98997
127625,99027
127701,99079
127719,99053
127696,99060
127591,99006
127720,99068
127807,99139
127801,99100
127736,99098
127680,99040
127803,99111
127919,99167
127882,99137
127853,99107
127794,99060
127939,99131
128013,99204
127971,99162
127936,99156
127906,99133
128068,99200
128126,99242
128085,99178
128097,99188
128018,99164
128129,99231
128194,99259
128205,99221
128160,99234
128112,99173
128228,99263
128291,99267
128222,99244
128167,99192
128118,99151
128310,99249
128314,99314
128235,99259
128191,99208
128121,99173
128251,99287
128298,99307
128263,99245
128170,99210
128115,99184
128256,99253
128282,99263
128216,99271
128122,99192
128092,99144
128241,99239
128228,99266
128183,99226
128126,99167
128094,99122
128264,99249
128253,99267
128193,99245
128113,99172
128100,99154
128297,99251
128258,99273
128218,99227
128157,99187
128186,99169
128287,99306
128317,99267
128287,99235
128213,99203
128235,99197
128416,99300
128388,99316
128353,99274
128301,99243
128375,99265
128498,99357
128448,99335
128438,99295
128411,99275
128437,99299
128611,99404
128584,99396
128504,99345
128481,99293
128548,99317
128712,99422
128641,99416
128640,99397
128551,99326
128642,99358
128762,99448
128729,99438
128715,99409
128631,99336
128775,99387
128859,99499
128827,99469
128794,99408
128760,99361
128889,99443
128991,99508
128936,99480
128933,99478
128880,99401
128995,99460
129115,99562
129083,99560
129031,99519
129013,99447
129134,99533
129236,99623
129198,99582
129179,99579
129124,99492
129235,99569
129291,99640
129206,99594
129179,99545
129032,99463
129135,99540
129110,99589
129015,99489
128945,99446
128763,99371
128830,99420
128800,99445
128716,99364
128558,99321
128384,99205
128391,99252
128377,99266
128268,99198
128098,99132
127934,99052
127976,99101
127944,99099
127809,99043
127674,98988
127523,98894
127608,98993
127577,99001
127482,98929
127400,98885
127310,98819
127386,98918
127386,98937
127339,98883
127274,98862
127218,98815
127315,98894
127344,98921
127302,98863
127266,98853
127213,98820
127331,98922
127393,98912
127324,98877
127322,98872
127291,98851
127412,98961
127434,98946
127419,98924
127370,98865
127385,98868
127501,98996
127492,99017
127488,98947
127443,98928
127467,98929
127615,99045
127645,99033
127599,98992
127576,98953
127581,98946
127726,99065
127766,99061
127724,99033
127665,98988
127663,99019
127833,99110
127882,99100
127824,99071
127773,98998
127801,99042
127934,99153
127921,99105
127953,99116
127865,99054
127872,99073
127998,99151
127951,99126
127960,99125
127857,99037
127896,99049
128014,99165
127960,99144
127930,99108
127859,99018
127915,99064
128032,99174
127978,99103
127945,99077
127862,99028
127930,99104
127974,99140
127960,99094
127941,99077
127855,99021
127922,99069
128021,99134
127964,99106
127927,99040
127857,98983
127983,99087
128029,99141
127985,99083
127975,99080
127923,99011
128008,99073
128089,99162
128065,99119
128035,99098
127959,99046
128085,99167
128143,99182
128130,99146
128121,99110
128060,99053
128177,99184
128234,99204
128243,99200
128203,99172
128159,99097
128275,99206
128360,99274
128308,99210
128312,99180
128261,99156
128403,99228
128477,99290
128450,99247
128431,99221
128379,99186
128530,99288
128588,99306
128568,99295
128518,99248
128485,99217
128667,99342
128707,99374
128674,99358
128662,99271
128622,99260
128797,99390
128837,99406
128776,99393
128744,99332
128753,99298
128879,99433
128920,99461
128872,99407
128849,99344
128866,99339
128992,99484
129008,99474
128987,99421
128973,99395
128921,99379
129099,99510
129122,99485
129059,99490
128993,99402
128998,99394
129112,99456
129115,99473
129042,99426
128929,99377
128872,99317
128963,99426
128884,99399
128791,99339
128678,99254
128593,99255
128608,99296
128561,99280
128446,99204
128251,99130
128211,99109
128234,99172
128148,99130
128023,99042
127863,98966
127820,98982
127860,99044
127742,99016
127667,98927
127524,98864
127510,98898
127545,98950
127453,98891
127414,98854
127282,98802
127308,98832
127378,98887
127349,98891
127259,98844
127187,98765
127266,98817
127339,98936
127260,98884
127254,98831
127160,98766
127274,98823
127347,98921
127310,98881
127283,98863
127202,98801
127297,98853
127367,98929
127359,98909
127307,98900
127258,98795
127362,98866
127474,98956
127439,98934
127412,98893
127316,98833
127444,98922
127543,98993
127541,98946
127491,98939
127470,98846
127574,98939
127686,99026
127629,99003
127607,98974
127554,98890
127710,98991
127756,99068
127746,99015
127696,98989
127627,98923
127777,99059
127859,99063
127799,99022
127800,98983
127732,98968
127829,99035
127873,99065
127843,99042
127803,98997
127730,98953
127875,99052
127848,99062
127811,99023
127805,98970
127735,98952
127876,99049
127847,99059
127806,99022
127799,98963
127744,98950
127882,99084
127893,99049
127842,99020
127819,99008
127790,98952
127867,99043
127927,99082
127871,99018
127833,98957
127820,98957
127934,99085
127957,99072
127901,99053
127880,99007
127844,98962
128009,99074
128011,99109
127984,99082
127923,99008
127950,98995
128112,99124
128110,99145
128090,99119
128057,99058
128083,99043
128202,99157
128187,99172
128177,99128
128142,99083
128161,99104
128313,99238
128306,99208
128290,99151
128222,99122
128259,99133
128395,99255
128403,99209
128345,99170
128307,99132
128367,99172
128470,99252
128479,99273
128450,99206
128415,99146
128512,99231
128612,99324
128580,99269
128567,99261
128504,99235
128606,99248
128687,99341
128712,99325
128630,99288
128607,99198
128711,99277
128815,99378
128791,99352
128768,99334
128703,99241
128787,99312
128905,99395
128859,99383
128857,99348
128822,99275
128918,99346
129033,99442
128959,99420
128917,99373
128828,99277
128909,99349
128989,99416
128891,99344
128807,99303
128697,99243
128758,99277
128740,99324
128629,99260
128492,99206
128363,99083
128391,99167
128349,99181
128263,99102
128122,99054
127954,98963
127989,99040
127978,99012
127810,98981
127697,98907
127586,98848
127641,98903
127558,98949
127445,98856
127358,98773
127242,98725
127318,98822
127286,98850
127195,98747
127115,98728
127035,98654
127092,98735
127121,98772
127062,98731
126993,98672
126948,98647
127047,98750
127077,98764
127015,98715
126965,98681
126920,98648
127037,98761
127095,98793
127049,98731
126980,98692
126983,98692
127126,98771
127134,98781
127125,98759
127074,98731
127054,98711
127196,98783
127211,98825
127191,98804
127150,98740
127211,98725
127331,98839
127374,98884
127331,98834
127280,98777
127364,98803
127515,98926
127476,98904
127487,98878
127438,98841
127478,98832
127608,98964
127617,98949
127569,98924
127529,98871
127548,98873
127666,99001
127655,98959
127599,98923
127553,98860
127576,98899
127687,98965
127660,98949
127605,98923
127578,98864
127593,98872
127680,98968
127591,98934
127587,98893
127524,98827
127591,98912
127649,98958
127606,98931
127556,98880
127479,98816
127548,98853
127644,98953
127597,98914
127553,98890
127471,98791
127541,98851
127672,98969
127574,98932
127561,98897
127462,98810
127578,98877
127652,98954
127628,98929
127585,98906
127499,98792
127631,98886
127714,98973
127685,98958
127650,98920
127566,98820
127719,98925
127801,99013
127735,98976
127761,98921
127671,98877
127801,98981
127870,99015
127872,99004
127823,98992
127767,98906
127868,98990
127993,99031
127963,99030
127949,98980
127884,98952
128048,99046
128102,99092
128067,99085
128016,99040
127987,98957
128138,99085
128193,99128
128182,99102
128133,99085
128121,99028
128242,99131
128308,99146
128270,99138
128252,99092
128232,99054
128369,99184
128384,99208
128383,99152
128390,99111
128369,99131
128505,99228
128532,99247
128518,99205
128490,99167
128478,99176
128651,99285
128615,99260
128624,99261
128582,99210
128552,99190
128690,99300
128708,99288
128709,99286
128635,99237
128625,99212
128704,99296
128700,99288
128627,99242
128506,99181
128448,99145
128498,99222
128420,99172
128358,99112
128216,99051
128126,99015
128154,99093
128044,99051
127931,98971
127808,98888
127755,98868
127728,98926
127653,98900
127516,98840
127400,98743
127306,98757
127354,98807
127281,98752
127186,98703
127042,98636
127066,98669
127132,98729
127029,98675
126977,98647
126868,98592
126901,98644
126948,98712
126896,98666
126887,98618
126772,98549
126845,98627
126925,98705
126911,98668
126867,98650
126754,98565
126892,98627
126971,98718
126987,98700
126946,98685
126881,98632
126992,98683
127079,98786
127084,98753
127054,98723
127052,98673
127131,98733
127250,98820
127251,98824
127207,98766
127166,98774
127295,98798
127400,98894
127379,98863
127404,98840
127348,98789
127459,98890
127559,98958
127585,98928
127550,98928
127484,98864
127605,98929
127685,98975
127684,98966
127661,98939
127607,98907
127723,98985
127746,99004
127725,98968
127699,98951
127630,98927
127739,98964
127770,99015
127761,98972
127703,98942
127658,98883
127758,98981
127755,99007
127735,98967
127705,98910
127646,98898
127743,98978
127757,99011
127727,98960
127651,98906
127646,98866
127756,98983
127791,98997
127699,98969
127640,98890
127643,98879
127750,98964
127766,98992
127759,98951
127720,98919
127683,98928
127778,99007
127806,98994
127792,98963
127738,98926
127751,98931
127892,99046
127871,99015
127865,98980
127835,98958
127829,98967
127981,99102
127963,99068
127963,99041
127931,99011
127932,99013
128064,99096
128069,99098
128077,99064
128010,99048
128041,99037
128193,99148
128155,99126
128164,99107
128166,99055
128160,99138
128246,99185
128255,99146
128273,99136
128206,99113
128269,99138
128382,99221
128346,99215
128377,99161
128305,99111
128445,99193
128510,99284
128493,99253
128517,99209
128455,99153
128600,99255
128666,99341
128626,99319
128639,99282
128595,99236
128628,99289
128768,99392
128767,99335
128765,99301
128706,99261
128815,99342
128904,99403
128865,99379
128881,99366
128819,99313
128912,99380
129021,99447
128967,99427
128960,99384
128869,99330
128951,99358
129013,99452
128941,99372
128863,99338
128750,99277
128755,99300
128792,99353
128714,99285
128593,99224
128468,99164
128487,99217
128452,99215
128349,99178
128229,99101
128078,99001
128115,99059
128092,99108
127926,99044
127828,98943
127694,98883
127721,98943
127667,98965
127557,98893
127427,98810
127350,98747
127409,98829
127397,98855
127320,98819
127216,98769
127147,98699
127255,98799
127249,98840
127214,98773
127136,98742
127092,98688
127222,98777
127261,98822
127227,98813
127181,98761
127150,98719
127291,98835
127335,98854
127284,98839
127271,98793
127292,98798
127410,98900
127443,98907
127421,98889
127404,98835
127434,98842
127538,98980
127560,98984
127552,98946
127548,98901
127585,98901
127705,98999
127720,99009
127737,99010
127679,98939
127730,98939
127884,99089
127886,99087
127831,99017
127805,98974
127869,98982
128015,99122
127985,99097
127937,99086
127905,99021
127946,99053
128042,99124
128065,99126
128013,99067
127951,99009
127996,99050
128093,99156
128048,99109
128015,99084
127966,99025
128005,99017
128081,99138
128039,99105
128010,99080
127901,98982
128010,99027
128068,99148
128039,99115
127984,99038
127900,98962
127997,99015
128061,99105
128029,99078
127982,99051
127899,98976
127991,99039
128082,99114
128020,99064
128052,99036
127977,98993
128066,99089
128108,99129
128061,99110
128077,99081
128038,99014
128128,99127
128182,99174
128174,99146
128175,99122
128097,99058
128182,99145
128258,99184
128245,99129
128227,99131
128187,99090
128278,99166
128329,99208
128311,99181
128307,99148
128269,99103
128373,99190
128468,99244
128437,99210
128446,99206
128392,99154
128499,99263
128586,99286
128575,99264
128522,99263
128505,99197
128637,99288
128677,99360
128689,99332
128616,99255
128598,99214
128760,99321
128790,99372
128774,99358
128724,99283
128735,99264
128837,99376
128858,99396
128864,99352
128829,99312
128848,99308
128956,99412
128994,99434
128971,99402
128951,99359
128943,99340
129072,99464
129088,99453
129082,99420
129026,99372
129056,99366
129143,99486
129204,99489
129132,99445
129083,99420
129066,99384
129171,99445
129121,99435
129115,99428
128955,99326
128964,99307
129010,99421
128919,99372
128842,99317
128695,99230
128619,99185
128640,99278
128540,99219
128408,99133
128293,99069
128214,99056
128208,99123
128127,99067
127997,99027
127852,98921
127797,98898
127849,99005
127738,98968
127609,98911
127494,98810
127461,98823
127571,98909
127442,98895
127362,98809
127252,98748
127304,98810
127403,98857
127340,98833
127270,98835
127171,98732
127251,98763
127337,98875
127270,98843
127243,98792
127217,98759
127290,98767
127334,98871
127348,98844
127293,98823
127262,98770
127378,98856
127411,98919
127383,98877
127375,98848
127344,98769
127473,98879
127542,98963
127515,98924
127508,98888
127479,98844
127605,98910
127675,99001
127653,98970
127665,98949
127614,98910
127723,98966
127824,99048
127773,98997
127793,98994
127713,98918
127839,99018
127915,99085
127878,99040
127865,99011
127792,98957
127885,99017
127952,99057
127932,99019
127901,99023
127829,98966
127940,99055
127995,99075
127924,99027
127905,99006
127847,98935
127934,99045
127943,99084
127875,99016
127843,98959
127792,98934
127916,99043
127929,99054
127859,98998
127821,98958
127809,98936
127914,99026
127924,99039
127875,99009
127835,98978
127794,98936
127898,99021
127936,99040
127890,98996
127850,98965
127826,98931
127938,99039
127953,99046
127922,99018
127888,99005
127857,98974
128004,99055
128009,99057
128025,99049
127944,99034
127983,98984
128084,99109
128110,99113
128092,99067
128051,99026
128099,99065
128197,99138
128217,99120
128223,99116
128151,99088
128193,99095
128298,99179
128308,99156
128312,99141
127924,99039
128289,99159
128408,99230
128408,99221
128398,99184
128382,99119
128439,99168
128531,99283
128478,99242
128469,99199
128443,99156
128510,99209
128608,99277
128573,99278
128577,99241
128544,99186
128606,99246
128703,99296
128688,99288
128717,99265
128640,99238
128700,99274
128803,99335
128804,99321
128808,99309
128738,99222
128830,99306
128913,99413
128872,99344
128871,99319
128851,99261
128905,99349
128918,99398
128880,99342
128797,99271
128730,99226
128767,99274
128756,99311
128655,99254
128559,99186
128460,99109
128436,99152
128419,99190
128315,99126
128180,99074
127982,98953
128007,98997
127955,99043
127813,98959
127679,98886
127529,98788
127542,98863
127458,98884
127337,98810
127201,98706
127143,98674
127167,98738
127105,98756
127007,98689
126905,98619
126792,98571
126904,98665
126862,98688
126812,98668
126744,98598
126664,98562
126771,98624
126777,98689
126714,98633
126653,98621
126594,98541
126721,98644
126744,98672
126696,98620
126636,98585
126632,98569
126726,98645
126752,98669
126716,98617
126737,98593
126679,98598
126795,98690
126831,98675
126824,98651
126780,98610
126825,98629
126952,98718
126967,98738
126969,98705
126944,98666
126972,98683
127108,98815
127100,98769
127099,98754
127097,98700
127128,98727
127232,98822
127223,98816
127211,98797
127171,98726
127204,98747
127274,98868
127258,98807
127230,98781
127192,98715
127250,98752
127316,98890
127314,98825
127272,98810
127209,98738
127251,98755
127334,98827
127277,98825
127252,98770
127181,98701
127225,98736
127311,98834
127213,98791
127186,98765
127151,98679
127178,98710
127259,98820
127232,98771
127186,98749
127092,98684
127155,98717
127229,98771
127236,98753
127203,98735
127110,98670
127188,98730
127285,98800
127238,98767
127236,98738
127183,98676
127257,98721
127361,98815
127306,98771
127305,98724
127252,98685
127332,98762
127427,98815
127416,98805
127404,98775
127349,98741
127500,98822
127554,98888
127584,98856
127555,98850
127493,98768
127634,98867
127726,98930
127733,98928
127704,98919
127645,98834
127812,98928
127891,99003
127852,98985
127875,98946
127849,98917
127973,98992
128027,99057
128001,99019
128013,99006
127978,98960
128103,99035
128168,99097
128136,99071
128131,99049
128111,98988
128205,99096
128254,99150
128245,99107
128218,99054
128231,99048
128355,99118
128404,99156
128395,99150
128357,99123
128361,99078
128505,99188
128542,99215
128541,99187
128493,99136
128518,99123
128640,99220
128634,99265
128624,99194
128556,99133
128537,99146
128617,99211
128598,99213
128526,99157
128416,99090
128375,99069
128403,99123
128323,99089
128233,99042
128086,98973
127991,98934
128008,98999
127902,98938
127820,98906
127667,98785
127556,98788
127564,98835
127441,98780
127313,98703
127200,98644
127119,98653
127099,98694
126997,98632
126903,98611
126817,98531
126754,98527
126780,98577
126717,98563
126635,98497
126551,98460
126575,98477
126633,98550
126561,98529
126531,98476
126434,98396
126525,98459
126559,98561
126543,98515
126493,98463
126440,98422
126516,98483
126592,98523
126569,98541
126552,98495
126473,98482
126560,98475
126677,98563
126654,98591
126624,98523
126612,98480
126713,98548
126757,98626
126781,98589
126751,98583
126721,98509
126856,98599
126974,98683
126911,98689
126903,98651
126873,98586
127026,98643
127097,98751
127081,98724
127055,98683
126974,98633
127125,98726
127162,98775
127143,98714
127115,98697
127094,98656
127160,98747
127198,98791
127158,98714
127108,98700
127076,98634
127134,98708
127160,98758
127135,98688
127114,98662
127039,98652
127116,98711
127096,98749
127069,98680
127031,98630
126982,98616
127071,98675
127080,98733
127019,98675
126986,98621
126903,98577
127031,98671
127052,98711
126985,98663
126912,98621
126907,98557
126996,98661
127026,98698
126983,98650
126950,98610
126909,98587
127037,98696
127023,98705
126970,98653
126919,98600
126937,98599
127033,98708
127035,98737
126996,98676
126954,98619
126975,98620
127084,98705
127126,98732
127068,98670
127065,98666
127062,98641
127175,98744
127211,98749
127166,98730
127125,98678
127175,98678
127278,98766
127299,98783
127281,98763
127241,98719
127283,98724
127377,98830
127394,98817
127389,98770
127336,98733
127416,98774
127476,98878
127455,98853
127477,98796
127443,98772
127497,98794
127559,98889
127578,98868
127581,98837
127535,98816
127585,98867
127675,98930
127695,98863
127658,98871
127655,98847
127703,98900
127817,98954
127805,98935
127780,98911
127739,98876
127817,98911
127896,98994
127916,98992
127882,98961
127816,98900
127903,98939
128018,99001
128004,99003
127972,98978
127914,98893
128010,98986
128019,99036
127952,98999
127878,98945
127764,98840
127838,98904
127786,98964
127655,98878
127531,98801
127380,98713
127399,98757
127344,98790
127190,98694
127039,98624
126879,98540
126859,98573
126762,98594
126613,98504
126472,98414
126328,98327
126287,98390
126219,98394
126104,98323
125981,98256
125829,98178
125875,98254
125808,98258
125711,98211
125626,98162
125530,98083
125609,98166
125580,98190
125521,98141
125468,98096
125421,98065
125525,98150
125532,98183
125489,98102
125490,98114
125442,98074
125551,98181
125598,98215
125584,98163
125570,98133
125556,98134
125679,98218
125678,98233
125688,98218
125678,98150
125667,98165
125796,98270
125807,98302
125792,98252
125755,98202
125797,98221
125934,98337
125904,98318
125935,98282
125897,98240
125952,98264
126077,98356
126098,98351
126119,98348
126045,98288
126085,98309
126199,98398
126249,98406
126197,98385
126165,98330
126216,98344
126296,98432
126295,98415
126270,98406
126223,98321
126234,98374
126351,98441
126321,98420
126258,98380
126214,98318
126230,98322
126348,98427
126283,98396
126262,98344
126207,98317
126241,98346
126325,98429
126278,98391
126279,98386
126200,98336
126220,98351
126301,98443
126261,98410
126259,98376
126176,98324
126261,98371
126310,98416
126234,98381
126239,98370
126176,98313
126243,98389
126286,98452
126250,98395
126250,98360
126203,98288
126312,98390
126353,98447
126314,98426
126285,98398
126267,98340
126377,98431
126422,98494
126381,98462
126401,98413
126345,98364
126498,98473
126529,98506
126520,98477
126478,98467
126445,98412
126572,98503
126633,98563
126645,98534
126618,98496
126604,98458
126672,98541
126734,98583
126737,98532
126747,98533
126748,98516
126829,98595
126877,98634
126891,98579
126845,98562
126854,98568
126940,98639
126998,98668
126972,98610
126990,98628
126949,98588
127047,98682
127094,98716
127111,98684
127070,98653
127064,98631
127195,98710
127245,98732
127243,98732
127191,98694
127176,98676
127322,98752
127351,98773
127371,98773
127340,98746
127361,98730
127476,98828
127487,98832
127466,98813
127430,98766
127406,98755
127545,98834
127553,98834
127508,98832
127392,98750
127394,98736
127453,98811
127361,98771
127301,98712
127148,98645
127059,98611
127077,98655
126988,98612
126861,98555
126667,98478
126582,98449
126530,98488
126418,98417
126276,98330
126084,98235
126003,98244
125984,98293
125844,98230
125694,98150
125527,98055
125488,98048
125482,98127
125393,98079
125239,98044
125083,97933
125124,97945
125145,98017
125079,97969
125010,97927
124932,97871
124921,97892
124997,97979
124948,97917
124934,97908
124828,97876
124899,97907
124966,97985
124926,97963
124922,97927
124857,97871
124952,97921
125027,98018
124987,97978
124986,97922
124967,97872
125046,97983
125108,98033
125099,98010
125091,97969
125063,97941
125179,98010
125286,98086
125266,98066
125264,98041
125242,98008
125378,98088
125465,98142
125475,98120
125445,98113
125404,98066
125509,98132
125598,98210
125579,98176
125578,98133
125523,98095
125641,98185
125677,98212
125637,98206
125627,98151
125581,98086
125698,98238
125716,98249
125650,98180
125653,98156
125620,98109
125670,98196
125693,98218
125658,98165
125614,98123
125544,98105
125659,98171
125669,98187
125638,98148
125557,98121
125541,98082
125637,98169
125656,98175
125593,98138
125558,98103
125578,98079
125646,98204
125664,98181
125606,98160
125607,98091
125599,98099
125681,98221
125693,98210
125646,98194
125610,98122
125640,98136
125726,98210
125732,98217
125720,98194
125666,98124
125708,98162
125801,98253
125831,98250
125798,98233
125778,98183
125826,98193
125924,98294
125934,98295
125952,98272
125889,98224
125942,98269
126085,98365
126047,98375
126039,98296
126043,98254
126076,98292
126171,98410
126187,98386
126196,98347
126167,98309
126207,98347
126307,98417
126331,98421
126309,98395
126248,98374
126329,98390
126438,98464
126452,98473
126469,98435
126424,98389
126486,98442
126580,98535
126604,98495
126596,98502
126584,98430
126638,98510
126682,98561
126685,98557
126697,98505
126685,98487
126766,98558
126838,98637
126845,98567
126801,98566
126781,98496
126891,98585
126933,98614
126947,98615
126924,98605
126891,98552
127040,98646
127073,98735
127038,98660
127039,98655
127007,98588
127075,98660
127155,98733
127117,98685
127081,98628
127040,98566
127095,98648
127093,98695
126964,98634
126884,98537
126772,98479
126780,98539
126701,98505
126579,98462
126454,98389
126273,98321
126242,98357
126178,98337
126013,98258
125849,98174
125680,98111
125643,98141
125577,98125
125429,98046
125259,98011
125115,97916
125137,97965
125066,97950
124957,97891
124845,97834
124790,97795
124784,97884
124730,97859
124653,97832
124614,97760
124554,97738
124626,97835
124633,97840
124579,97789
124556,97741
124523,97732
124642,97844
124634,97825
124610,97809
124565,97761
124576,97783
124716,97855
124725,97877
124701,97861
124702,97773
124740,97792
124858,97931
124841,97928
124819,97884
124810,97813
124881,97852
125024,97959
125038,97981
125021,97957
125004,97891
125076,97925
125218,98027
125203,98033
125212,97998
125241,97958
125312,98014
125375,98117
125403,98092
125424,98054
125375,98028
125462,98051
125542,98122
125529,98116
125479,98092
125458,98033
125556,98054
125632,98187
125590,98151
125553,98108
125538,98031
125616,98077
125683,98184
125645,98150
125582,98130
125545,98062
125608,98109
125655,98173
125617,98143
125592,98105
125488,98067
125544,98115
125570,98147
125549,98129
125469,98083
125434,98035
125496,98079
125528,98145
125510,98119
125425,98061
125361,98024
125495,98073
125540,98147
125487,98111
125438,98104
125384,98018
125478,98084
125543,98152
125518,98135
125511,98112
125445,98069
125527,98125
125646,98183
125614,98143
125607,98143
125533,98086
125641,98183
125698,98185
125692,98165
125696,98159
125659,98114
125789,98218
125798,98263
125803,98204
125780,98181
125811,98154
125916,98268
125928,98302
125914,98257
125893,98205
125927,98213
126052,98317
126086,98370
126093,98316
126068,98278
126069,98269
126204,98348
126251,98401
126221,98372
126181,98332
126195,98321
126318,98383
126383,98439
126319,98391
126325,98355
126328,98355
126467,98480
126491,98470
126479,98457
126444,98402
126497,98402
126602,98502
126666,98538
126603,98512
126556,98442
126595,98452
126742,98582
126705,98538
126718,98518
126655,98485
126691,98475
126820,98598
126795,98580
126752,98555
126740,98484
126801,98518
126911,98626
126909,98597
126845,98584
126793,98520
126859,98542
126934,98611
126911,98598
126874,98545
126755,98476
126761,98497
126781,98582
126698,98520
126599,98450
126437,98361
126395,98363
126384,98404
126213,98351
126087,98274
125910,98173
125827,98159
125814,98231
125613,98159
125470,98070
125246,97929
125208,97956
125167,97991
124994,97933
124861,97834
124704,97751
124682,97793
124652,97838
124551,97744
124454,97712
124338,97660
124334,97681
124326,97724
124316,97670
124214,97622
124135,97543
124203,97641
124254,97716
124206,97669
124184,97632
124114,97560
124247,97635
124330,97704
124284,97702
124256,97671
124244,97611
124342,97705
124460,97777
124423,97734
124422,97695
124418,97672
124556,97750
124627,97830
124625,97800
124644,97781
124621,97757
124750,97848
124825,97912
124800,97853
124826,97846
124832,97828
124941,97911
124970,97943
124993,97935
124973,97885
124954,97861
125099,97968
125115,98002
125101,97964
125121,97925
125098,97904
125207,97989
125225,98014
125196,97991
125173,97942
125197,97931
125289,98011
125275,98007
125268,97986
125241,97930
125260,97932
125328,98017
125332,98027
125287,97979
125282,97936
125273,97947
125355,98009
125359,97992
125339,97977
125314,97940
125288,97927
125386,98026
125416,98010
125374,98004
125350,97935
125409,97956
125458,98035
125471,98058
125475,98022
125398,97972
125468,97999
125571,98082
125544,98070
125557,98034
125523,97983
125575,98041
125692,98121
125700,98131
125654,98108
125650,98038
125702,98109
125780,98174
125829,98163
125823,98150
125760,98125
125829,98134
125937,98227
125977,98229
125957,98215
125926,98161
126046,98223
126136,98309
126109,98288
126118,98286
126083,98202
126186,98289
126291,98366
126270,98351
126239,98315
126242,98263
126339,98340
126414,98425
126440,98401
126416,98370
126394,98354
126454,98396
126528,98460
126538,98418
126515,98402
126521,98374
126614,98457
126667,98516
126658,98457
126655,98465
126598,98417
126727,98513
126763,98575
126722,98483
126744,98475
126703,98424
126816,98525
126843,98570
126840,98543
126816,98489
126788,98468
126892,98563
126954,98577
126960,98560
126943,98560
126863,98519
126985,98594
127017,98604
127061,98603
126993,98571
126957,98555
127097,98622
127153,98665
127103,98618
127067,98618
127013,98546
127121,98629
127129,98630
127060,98618
126998,98566
126903,98482
126950,98562
126882,98559
126775,98473
126671,98428
126563,98359
126545,98399
126465,98398
126309,98318
126136,98230
125997,98147
125981,98224
125899,98159
125723,98119
125535,98024
125412,97978
125392,98017
125251,97986
125137,97914
124998,97840
124878,97819
124882,97860
124790,97805
124688,97755
124607,97680
124551,97711
124608,97758
124554,97727
124540,97705
124425,97663
124443,97661
124516,97748
124527,97716
124524,97691
124475,97630
124502,97703
124575,97763
124574,97729
124586,97727
124558,97684
124585,97714
124726,97794
124705,97795
124690,97751
124644,97734
124738,97756
124843,97844
124876,97850
124848,97845
124817,97777
124936,97827
125021,97895
125011,97907
125037,97875
125024,97853
125121,97885
125232,97969
125197,97952
125218,97934
125198,97875
125287,97944
125371,98028
125349,97970
125352,97964
125290,97927
125390,97989
125458,98045
125459,98016
125383,98010
125326,97916
125427,98019
125459,98036
125438,98020
125380,97977
125347,97939
125380,97969
125429,98048
125379,97988
125333,97975
125274,97904
125347,97961
125363,98010
125347,97956
125244,97919
125196,97856
125318,97948
125303,97993
125232,97943
125195,97891
125158,97834
125241,97946
125270,97964
125232,97938
125184,97905
125181,97879
125238,97940
125236,97962
125228,97920
125204,97899
125151,97868
125271,97954
125282,97995
125275,97941
125204,97922
125212,97878
125336,97998
125325,97992
125307,97957
125270,97911
125295,97915
125380,98014
125380,98012
125363,97969
125345,97951
125347,97933
125449,98056
125445,98036
125446,98007
125404,97962
125464,97985
125545,98075
125535,98087
125550,98069
125518,98003
125519,98018
125655,98083
125653,98114
125639,98082
125593,98023
125642,98039
125780,98143
125765,98133
125747,98116
125693,98055
125742,98088
125867,98174
125867,98154
125871,98145
125825,98083
125896,98112
126010,98209
126050,98197
126022,98197
125989,98153
126048,98170
126141,98252
126133,98238
126150,98199
126129,98177
126208,98220
126312,98317
126287,98289
126282,98258
126281,98217
126319,98300
126409,98350
126399,98316
126387,98302
126350,98263
126429,98301
126519,98379
126453,98337
126457,98306
126354,98241
126403,98315
126402,98351
126285,98289
126226,98210
126090,98136
126108,98196
126051,98193
125914,98149
125758,98076
125574,97972
125576,97989
125508,98025
125345,97940
125193,97828
124989,97743
124980,97788
124889,97793
124774,97739
124640,97642
124477,97588
124462,97609
124468,97637
124334,97587
124272,97543
124127,97473
124196,97508
124223,97540
124168,97509
124111,97482
124071,97435
124147,97496
124175,97547
124161,97512
124138,97494
124112,97481
124200,97522
124239,97581
124240,97541
124216,97540
124203,97506
124334,97588
124366,97632
124338,97593
124343,97564
124348,97564
124436,97646
124486,97675
124477,97644
124487,97620
124482,97645
124595,97708
124647,97732
124653,97694
124658,97666
124668,97675
124778,97771
124819,97793
124841,97763
124783,97720
124850,97745
124895,97845
124915,97809
124913,97777
124873,97751
124895,97767
125011,97847
125014,97849
124972,97809
124920,97765
124934,97786
124998,97835
124985,97847
124979,97797
124927,97740
124903,97757
124960,97818
124942,97799
124877,97763
124835,97695
124843,97729
124913,97790
124878,97768
124806,97719
124764,97698
124732,97690
124850,97770
124790,97726
124763,97703
124678,97642
124722,97683
124797,97748
124742,97724
124713,97678
124669,97627
124683,97650
124790,97744
124737,97717
124708,97694
124610,97619
124676,97678
124791,97741
124760,97728
124696,97693
124666,97635
124747,97705
124845,97747
124815,97738
124759,97727
124713,97646
124855,97697
124922,97796
124886,97752
124875,97739
124850,97680
124962,97760
125035,97840
125035,97807
125022,97763
124986,97720
125127,97825
125200,97893
125161,97887
125145,97825
125142,97780
125267,97879
125331,97930
125331,97923
125328,97904
125268,97844
125398,97974
125427,97987
125419,97948
125446,97912
125422,97907
125527,98009
125559,98036
125548,97989
124845,97747
125535,97932
125656,98031
125708,98059
125706,98060
125627,98008
125640,97953
125810,98075
125815,98123
125815,98090
125771,98040
125749,97992
125898,98119
125930,98134
125884,98120
125906,98070
125896,98065
126006,98140
126031,98166
126002,98136
125990,98103
125985,98101
126130,98174
126119,98211
126042,98154
125984,98121
125978,98078
125996,98139
125949,98118
125873,98071
125722,97981
125657,97943
125662,98013
125554,97993
125391,97910
125228,97791
125139,97760
125104,97826
124970,97767
124807,97664
124609,97553
124555,97577
124489,97605
124378,97559
124239,97447
124122,97395
124067,97407
124061,97456
123957,97409
123862,97354
123781,97273
123788,97299
123798,97362
123727,97346
123677,97292
123605,97246
123631,97274
123707,97320
123664,97314
123630,97280
123601,97223
123674,97278
123725,97364
123701,97334
123682,97303
123635,97240
123764,97337
123825,97386
123812,97359
123792,97334
123772,97273
123867,97350
123948,97427
123930,97396
123905,97390
123878,97344
123979,97404
124075,97472
124087,97455
124076,97441
124047,97399
124171,97470
124252,97553
124254,97534
124234,97499
124210,97444
124336,97542
124373,97602
124393,97582
124375,97554
124313,97474
124436,97574
124465,97639
124427,97593
124434,97510
124367,97489
124462,97578
124488,97595
124445,97570
124395,97537
124348,97482
124426,97564
124460,97604
124396,97567
124326,97506
124309,97500
124370,97553
124407,97586
124328,97511
124256,97460
124233,97458
124331,97498
124302,97557
124250,97499
124191,97451
124157,97408
124294,97498
124286,97534
124259,97495
124190,97437
124181,97432
124275,97500
124302,97520
124267,97488
124235,97453
124246,97434
124356,97537
124362,97541
124368,97521
124293,97516
124339,97498
124469,97570
124482,97595
124460,97552
124413,97512
124462,97504
124563,97616
124583,97619
124538,97598
124520,97547
124581,97573
124685,97659
124684,97642
124679,97624
124649,97560
124729,97616
124819,97727
124822,97715
124808,97669
124808,97624
124880,97674
125002,97764
125000,97776
125013,97748
124937,97717
125040,97725
125153,97819
125132,97820
125118,97790
125073,97733
125168,97773
125281,97881
125264,97850
125221,97820
125175,97754
125280,97810
125397,97896
125343,97871
125342,97854
125308,97792
125402,97870
125509,97950
125490,97926
125476,97904
125445,97822
125524,97900
125639,97984
125627,97948
125607,97926
125559,97879
125687,97960
125712,97995
125676,97988
125673,97947
125571,97880
125593,97927
125622,97949
125503,97890
125437,97839
125280,97788
125246,97810
125226,97825
125075,97736
124918,97645
124766,97576
124727,97616
124652,97569
124480,97528
124332,97476
124143,97347
124117,97401
124025,97380
123868,97291
123725,97240
123585,97171
123597,97246
123531,97212
123414,97158
123348,97088
123250,97065
123297,97152
123236,97113
123149,97077
123134,97005
123064,96992
123144,97089
123160,97108
123107,97059
123101,97023
123084,97017
123166,97112
123171,97113
123158,97076
123158,97026
123154,97028
123263,97131
123306,97154
123268,97103
123271,97073
123278,97104
123391,97172
123447,97172
123419,97175
123424,97162
123414,97138
123540,97254
123594,97223
123585,97201
123579,97204
123620,97195
123737,97317
123739,97288
123762,97292
123760,97276
123817,97283
123904,97380
123892,97356
123908,97348
123883,97292
123939,97302
124019,97416
124046,97385
124006,97357
123939,97294
124009,97344
124083,97422
124085,97385
124045,97363
124011,97327
124036,97358
124115,97424
124081,97382
124036,97355
123986,97297
124059,97334
124081,97404
124055,97391
124050,97326
123973,97300
124010,97332
124053,97389
124018,97365
124008,97344
123957,97313
124014,97346
124078,97412
124036,97395
123989,97354
123931,97275
124022,97357
124105,97396
124072,97369
124034,97366
123953,97303
124108,97344
124159,97401
124149,97404
124107,97358
124065,97335
124207,97414
124253,97495
124237,97422
124234,97418
124210,97363
124333,97444
124360,97527
124374,97506
124358,97471
124354,97445
124459,97528
124535,97558
124508,97540
124523,97537
124490,97482
124585,97583
124662,97618
124645,97581
124623,97536
124627,97538
124742,97645
124794,97649
124789,97651
124781,97619
124750,97584
124875,97680
124957,97718
124944,97704
124914,97671
124914,97626
125036,97739
125093,97758
125088,97742
125047,97717
125067,97666
125199,97795
125206,97819
125185,97796
125180,97731
125182,97745
125304,97811
125327,97831
125338,97819
125305,97774
125279,97753
125429,97848
125421,97882
125414,97850
125371,97789
125398,97798
125493,97887
125466,97891
125357,97841
125268,97753
125264,97728
125285,97787
125201,97806
125084,97701
124934,97617
124838,97592
124828,97648
124684,97588
124532,97509
124391,97419
124245,97393
124198,97434
124069,97340
123925,97287
123785,97184
123690,97182
123679,97254
123550,97193
123407,97122
123255,97012
123306,97060
123286,97113
123197,97075
123109,97008
122999,96924
123062,96966
123132,97050
123042,97012
122999,96981
122965,96933
123031,96996
123099,97056
123066,97017
123050,97015
123012,96954
123122,97004
123189,97069
123235,97062
123196,97038
123186,97013
123294,97080
123382,97144
123389,97135
123395,97118
123365,97076
123515,97157
123595,97233
123575,97218
123588,97169
123563,97105
123753,97250
123823,97306
123804,97272
123841,97287
123845,97238
123949,97328
124023,97372
124025,97358
124043,97333
124049,97299
124142,97399
124224,97469
124186,97416
124191,97376
124174,97324
124266,97432
124305,97447
124270,97446
124256,97407
124210,97367
124300,97434
124348,97455
124290,97455
124234,97397
124214,97357
124302,97434
124295,97408
124280,97415
124205,97364
124187,97320
124247,97431
124256,97430
124220,97389
124185,97350
124194,97334
124284,97412
124249,97416
124207,97380
124168,97307
124169,97332
124245,97419
124232,97396
124221,97372
124192,97329
124167,97348
124267,97428
124284,97427
124247,97394
124238,97386
124244,97386
124359,97473
124359,97460
124358,97447
124342,97395
124345,97412
124454,97496
124442,97497
124464,97490
124425,97422
124458,97453
124603,97548
124603,97573
124597,97524
124596,97471
124642,97524
124759,97625
124772,97621
124742,97567
124704,97503
124822,97561
124909,97664
124928,97635
124906,97611
124881,97586
124967,97636
125036,97722
125017,97690
125033,97671
125028,97638
125122,97694
125206,97769
125192,97752
125182,97733
125172,97690
125264,97740
125341,97828
125363,97808
125357,97781
125342,97727
125419,97819
125509,97882
125491,97841
125478,97814
125477,97779
125545,97870
125623,97918
125624,97898
125583,97858
125536,97819
125655,97897
125702,97951
125644,97902
125602,97868
125567,97801
125598,97878
125610,97905
125465,97818
125394,97778
125265,97685
125256,97719
125225,97768
125073,97667
124927,97613
124780,97492
124738,97558
124620,97523
124465,97436
124321,97352
124190,97273
124152,97346
124056,97322
123908,97265
123788,97188
123644,97126
123649,97167
123600,97193
123469,97123
123369,97064
123273,97005
123350,97075
123314,97096
123219,97067
123183,96981
123125,96965
123198,97033
123202,97071
123171,97038
123116,96968
123124,96946
123240,97062
123241,97062
123253,97049
123199,97001
123204,96993
123297,97090
123381,97110
123320,97106
123296,97050
123354,97075
123486,97161
123464,97173
123464,97118
123443,97083
123533,97117
123659,97231
123675,97239
123658,97188
123655,97163
123706,97205
123837,97284
123842,97282
123834,97260
123806,97223
123878,97223
124017,97340
124030,97313
123993,97344
123968,97250
124026,97279
124121,97382
124099,97363
124091,97339
124032,97277
124098,97303
124191,97387
124156,97373
124099,97345
124010,97272
124086,97291
124162,97382
124141,97354
124074,97313
123994,97255
124075,97290
124132,97361
124056,97324
124036,97299
123989,97220
124055,97294
124098,97358
124044,97332
124008,97298
123961,97218
124022,97298
124093,97355
124050,97329
124010,97277
123986,97254
124045,97297
124113,97372
124066,97334
124041,97298
123996,97244
124095,97313
124139,97354
124137,97343
124081,97301
124065,97260
124145,97340
124194,97387
124181,97374
124191,97351
124179,97293
124295,97406
124354,97455
124307,97407
124340,97390
124304,97367
124409,97439
124482,97513
124464,97451
124468,97427
124451,97379
124596,97517
124609,97546
124595,97493
124593,97471
124613,97472
124706,97557
124769,97576
124768,97578
124753,97536
124728,97510
124903,97635
124933,97646
124896,97631
124898,97596
124900,97598
125012,97668
125065,97688
125051,97684
125011,97610
125031,97618
125154,97712
125167,97722
125156,97661
125179,97662
125179,97664
125271,97763
125295,97761
125267,97721
125278,97707
125311,97714
125426,97796
125449,97779
125386,97805
125373,97740
125408,97752
125455,97838
125433,97813
125390,97770
125314,97689
125311,97695
125334,97752
125231,97709
125110,97666
124957,97569
124927,97533
124898,97609
124765,97564
124608,97472
124423,97356
124363,97334
124326,97418
124193,97335
124027,97245
123852,97149
123784,97163
123764,97231
123597,97147
123482,97072
123362,96996
123338,97025
123290,97056
123207,97016
123142,96979
123048,96888
123052,96914
123070,97016
123001,96964
122986,96922
122890,96868
122965,96894
123038,96966
123013,96955
122973,96925
122924,96877
122995,96937
123077,97011
123066,96995
123038,96974
123023,96913
123111,96990
123194,97036
123178,97041
123132,97013
123136,96950
123238,97035
123323,97124
123337,97058
123330,97055
123300,97000
123437,97094
123490,97172
123472,97145
123522,97105
123497,97061
123642,97188
123684,97243
123647,97211
123642,97148
123625,97134
123784,97245
123823,97278
123787,97230
123775,97199
123768,97174
123875,97279
123871,97266
123883,97258
123802,97240
123762,97166
123855,97233
123869,97268
123867,97231
123807,97197
123741,97144
123842,97251
123858,97254
123800,97214
123733,97167
123677,97134
123775,97185
123814,97225
123737,97175
123682,97144
123638,97103
123756,97219
123743,97205
123715,97180
123678,97100
123652,97132
123728,97202
123747,97205
123722,97183
123675,97123
123690,97127
123775,97209
123803,97220
123754,97180
123720,97142
123739,97136
123864,97235
123812,97223
123818,97219
123807,97164
123852,97184
123979,97297
123987,97279
123967,97255
123918,97193
123984,97224
124103,97338
124114,97313
124106,97322
124054,97233
124124,97275
124283,97379
124265,97370
124296,97363
124219,97295
124310,97336
124445,97431
124442,97436
124435,97415
124425,97338
124493,97416
124617,97501
124608,97490
124593,97494
124556,97409
124636,97461
124787,97573
124765,97553
124748,97529
124723,97467
124804,97552
124913,97626
124901,97589
124882,97574
124850,97519
124921,97569
125067,97639
125037,97627
125017,97636
124971,97560
125092,97634
125161,97714
125117,97663
125135,97647
125112,97578
125215,97703
125282,97758
125240,97711
125234,97679
125191,97636
125264,97715
125298,97743
125274,97708
125207,97664
125111,97592
125149,97616
125117,97646
125013,97577
124909,97537
124724,97455
124716,97463
124674,97466
124524,97416
124388,97342
124223,97260
124179,97289
124078,97272
123937,97204
123800,97114
123636,97073
123646,97152
123547,97108
123387,97009
123292,96944
123198,96910
123231,96976
123173,96973
123072,96909
123016,96885
122946,96845
123007,96914
123041,96910
122994,96907
122870,96841
122884,96806
123000,96888
123006,96945
122976,96906
122945,96843
122976,96852
123074,96951
123091,96958
123080,96942
123068,96889
123108,96886
123246,97011
123248,97027
123226,97011
123185,96954
123262,96955
123389,97058
123379,97073
123377,97049
123363,97018
123389,97009
123549,97110
123561,97136
123566,97105
123533,97070
123594,97101
123727,97173
123725,97175
123724,97168
123708,97142
123810,97155
123913,97239
123896,97228
123879,97200
123872,97166
123945,97192
124042,97300
124019,97271
123975,97247
123964,97188
124035,97240
124099,97310
124051,97292
124009,97232
123992,97191
124059,97250
124138,97343
124048,97289
124007,97236
123999,97166
124024,97237
124089,97330
124055,97278
123973,97247
123934,97162
123987,97224
124043,97316
124029,97260
123959,97246
123894,97183
123977,97264
124003,97286
123964,97260
123947,97232
123895,97184
123976,97255
124001,97288
124031,97255
123963,97263
123920,97172
124001,97260
124077,97309
124080,97288
124041,97262
124026,97239
124120,97304
124176,97332
124145,97323
124163,97291
124152,97261
124261,97364
124295,97373
124277,97362
124268,97325
124262,97300
124379,97406
124422,97416
124435,97419
124430,97377
124387,97349
124548,97444
124573,97463
124590,97466
124559,97418
124543,97436
124673,97511
124727,97521
124707,97508
124720,97464
124714,97468
124825,97562
124866,97571
124828,97557
124852,97516
124846,97494
124996,97611
124978,97650
124964,97580
124941,97549
124991,97555
125082,97639
125095,97662
125116,97642
125043,97597
125085,97608
125214,97726
125223,97705
125240,97688
125197,97632
125234,97657
125323,97743
125320,97745
125283,97730
125259,97692
125287,97702
125377,97783
125337,97749
125297,97725
125189,97654
125192,97664
125217,97709
125131,97648
124974,97601
124868,97522
124787,97489
124767,97535
124614,97476
124426,97398
124274,97290
124209,97273
124150,97330
123982,97229
123822,97157
123670,97072
123605,97085
123566,97118
123406,97035
123289,96986
123138,96897
123113,96924
123110,96967
123022,96909
122924,96850
122851,96786
122839,96824
122851,96878
122838,96852
122780,96819
122725,96720
122770,96792
122834,96885
122803,96843
122751,96821
122748,96736
122871,96855
122925,96925
122865,96880
122834,96858
122842,96792
122966,96892
123015,96951
123002,96913
122991,96913
122976,96851
123084,96934
123142,97004
123124,96986
123105,96930
123101,96907
123236,97003
123310,97052
123279,97040
123295,97020
123266,96973
123389,97097
123416,97110
123440,97083
123409,97061
123406,97010
123542,97100
123591,97161
123574,97116
123546,97121
123507,97042
123664,97141
123644,97171
123619,97139
123602,97094
123577,97080
123654,97142
123718,97162
123643,97135
123611,97122
123555,97061
123658,97130
123667,97120
123603,97117
123567,97059
123549,97054
123626,97135
123609,97139
123585,97097
123501,97040
123509,97055
123615,97118
123586,97116
123573,97114
123494,97053
123524,97038
123615,97152
123569,97129
123559,97092
123501,97024
123543,97072
123639,97159
123618,97168
123580,97115
123540,97036
123623,97092
123719,97195
123715,97168
123692,97126
123651,97074
123742,97171
123843,97225
123839,97218
123869,97199
123818,97169
123883,97192
123976,97302
123967,97261
123991,97251
123941,97224
124012,97261
124103,97355
124121,97328
124088,97304
124043,97243
124127,97289
124243,97379
124244,97366
124199,97335
124192,97289
124306,97340
124368,97438
124358,97428
124342,97390
124334,97339
124419,97415
124509,97480
124473,97444
124468,97416
124423,97379
124562,97466
124609,97508
124614,97487
124608,97464
124574,97420
124672,97502
124741,97562
124740,97545
124696,97484
124679,97442
124803,97528
124888,97572
124867,97570
124863,97560
124829,97508
124946,97595
125036,97656
124956,97595
124975,97579
124965,97536
125080,97623
125131,97684
125102,97661
125088,97608
125097,97566
125181,97672
125215,97722
125172,97657
125115,97623
125041,97566
125096,97632
125108,97671
124944,97584
124808,97487
124722,97429
124756,97502
124689,97497
124489,97414
124336,97328
124232,97254
124165,97280
124046,97276
123910,97207
123753,97122
123597,97047
123593,97109
123468,97032
123321,96990
123207,96911
123102,96896
123077,96928
123019,96906
122942,96868
122812,96790
122788,96774
122820,96846
122772,96809
122761,96786
122687,96762
122674,96747
122752,96820
122719,96801
122734,96803
122684,96746
122723,96775
122802,96855
122791,96850
122761,96853
122756,96771
122777,96790
122894,96907
122894,96919
122850,96859
122838,96812
122923,96854
122999,96944
123018,96942
122967,96904
122959,96857
123043,96920
123141,96999
123151,96980
123142,96980
123131,96909
123181,96980
123295,97054
123275,97049
123274,97016
123248,96977
123320,97012
123407,97093
123375,97082
123376,97057
123330,97012
123413,97038
123487,97121
123452,97124
123386,97056
123366,96985
123446,97058
123509,97119
123476,97081
123441,97068
123351,97013
123446,97047
123488,97099
123447,97066
123392,97056
123340,96998
123367,97040
123416,97090
123366,97036
123334,97032
123283,96942
123334,97034
123344,97058
123307,97019
123288,97004
123222,96970
123284,97008
123334,97044
123296,97016
123246,96986
123188,96916
123271,97022
123336,97091
123283,97013
123232,96957
123263,96953
123329,97069
123397,97082
123325,97037
123303,97006
123316,96964
123421,97084
123470,97114
123433,97072
123399,97060
123443,97037
123506,97106
123554,97139
123571,97107
123588,97088
123566,97114
123700,97157
123706,97189
123720,97184
123702,97128
123697,97125
123831,97239
123849,97245
123849,97206
123847,97178
123857,97204
123955,97279
123957,97273
123974,97243
123926,97197
123991,97244
124122,97352
124068,97326
124073,97310
124080,97282
124089,97302
124175,97374
124194,97358
124204,97337
124178,97300
124188,97344
124312,97403
124309,97413
124281,97375
124260,97311
124300,97344
124415,97450
124392,97446
124337,97381
124329,97341
124392,97361
124519,97488
124464,97467
124432,97404
124423,97361
124459,97430
124586,97499
124547,97478
124544,97444
124481,97377
124595,97471
124644,97542
124616,97518
124587,97475
124536,97427
124648,97498
124696,97554
124699,97524
124643,97496
124586,97418
124651,97483
124687,97553
124638,97486
124529,97460
124433,97371
124474,97406
124444,97423
124349,97371
124210,97311
124039,97217
124009,97236
123976,97259
123784,97186
123635,97085
123510,97011
123425,97064
123353,97026
123168,96945
123074,96884
122931,96811
122888,96839
122818,96881
122699,96794
122583,96730
122469,96653
122513,96704
122501,96762
122390,96707
122339,96635
122288,96584
122385,96678
122377,96723
122331,96657
122301,96623
122256,96599
122368,96664
122400,96710
122399,96695
122357,96675
122345,96630
122471,96713
122489,96731
122508,96731
122470,96716
122498,96685
122613,96787
122644,96809
122641,96801
122620,96742
122650,96753
122756,96873
122792,96879
122775,96838
122798,96784
122807,96793
122952,96932
122956,96909
122972,96881
122940,96862
123018,96887
123122,96972
123143,96988
123109,96995
123097,96904
123168,96896
123297,97036
123310,97040
123280,97028
123245,96970
123290,96968
123386,97070
123383,97071
123376,97038
123309,96971
123357,97020
123398,97076
123396,97064
123368,97016
123335,96968
123358,97029
123411,97081
123382,97055
123352,97024
123280,96998
123316,97012
123419,97065
123368,97031
123382,97029
123282,96964
123332,97009
123425,97081
123365,97074
123351,97043
123273,96966
123359,97045
123414,97109
123379,97073
123344,97049
123319,97004
123382,97072
123434,97098
123424,97085
123396,97060
123377,97018
123430,97068
123531,97137
123518,97107
123494,97093
123451,97017
123554,97114
123616,97178
123606,97148
123588,97124
123545,97079
123679,97165
123736,97228
123742,97201
123723,97159
123706,97135
123820,97206
123857,97284
123862,97239
123873,97238
123832,97210
123944,97267
124013,97323
123982,97288
123975,97258
123980,97257
124082,97338
124136,97368
124126,97341
124106,97304
124124,97267
124239,97350
124226,97396
124271,97408
124235,97368
124246,97341
124363,97415
124406,97459
124406,97430
124347,97404
124385,97355
124496,97484
124531,97501
124495,97472
124474,97433
124509,97414
124615,97534
124647,97531
124594,97471
124595,97442
124594,97452
124706,97571
124740,97572
124707,97538
124651,97487
124675,97492
124812,97571
124829,97606
124804,97571
124736,97518
124790,97539
124907,97642
124898,97635
124899,97609
124824,97563
124843,97579
124948,97644
124964,97655
124960,97638
124892,97593
124952,97596
125029,97692
125012,97664
124972,97631
124925,97579
124969,97619
125007,97667
125000,97646
124938,97582
124826,97561
124771,97557
124765,97575
124691,97522
124569,97467
124403,97372
124350,97387
124330,97407
124138,97321
124010,97289
123803,97175
123731,97154
123685,97180
123540,97135
123367,97050
123234,96981
123174,96975
123123,96995
122993,96959
122876,96892
122760,96826
122739,96857
122764,96849
122676,96819
122631,96793
122520,96737
122566,96797
122609,96824
122549,96791
122510,96769
122439,96715
122560,96770
122608,96842
122609,96809
122539,96789
122516,96723
122634,96807
122713,96894
122667,96825
122658,96812
122661,96781
122778,96849
122812,96897
122811,96901
122809,96881
122759,96845
122896,96914
122988,96971
122968,96965
122981,96930
122952,96902
123045,96972
123152,97027
123139,97022
123136,96973
123135,96963
123265,97079
123286,97084
123268,97066
123267,97002
123311,96992
123401,97111
123403,97140
123398,97086
123383,97063
123354,97010
123499,97139
123513,97162
123440,97108
123406,97058
123428,97036
123515,97118
123518,97153
123446,97121
123380,97034
123388,97030
123456,97130
123423,97137
123392,97106
123334,97029
123314,96999
123426,97083
123360,97105
123310,97067
123235,96977
123236,96996
123371,97081
123321,97101
123293,97054
123215,96978
123275,97007
123316,97101
123333,97080
123303,97024
123244,97020
123278,97032
123386,97080
123390,97076
123390,97066
123333,97061
123380,97075
123456,97132
123471,97123
123451,97099
123400,97028
123531,97089
123599,97190
123580,97186
123562,97150
123532,97082
123685,97140
123786,97260
123779,97235
123769,97194
123723,97152
123843,97242
123928,97316
123918,97320
123919,97260
123889,97236
124003,97308
124087,97358
124095,97342
124080,97309
124076,97268
124186,97364
124252,97428
124232,97382
124223,97355
124209,97324
124285,97390
124416,97455
124393,97449
124400,97435
124336,97403
124448,97451
124551,97518
124520,97482
124517,97478
124495,97424
124606,97521
124677,97580
124655,97567
124659,97488
124615,97464
124735,97549
124770,97617
124731,97575
123928,97316
124706,97508
124818,97620
124872,97638
124865,97624
124860,97604
124831,97548
124944,97641
125006,97687
124976,97670
124939,97659
124928,97581
125046,97707
125091,97749
125086,97705
125028,97664
125023,97651
125127,97752
125147,97747
125096,97710
125100,97661
125102,97681
125207,97761
125181,97761
125150,97738
125140,97688
125155,97697
125194,97779
125212,97773
125155,97737
125055,97688
125038,97620
125080,97707
125014,97700
124908,97647
124738,97531
124697,97507
124667,97583
124558,97535
124400,97419
124246,97323
124127,97313
124093,97363
123963,97288
123833,97208
123650,97138
123519,97087
123490,97139
123370,97098
123239,97039
123116,96934
123024,96931
123057,96967
122995,96958
122899,96928
122778,96850
122779,96853
122847,96891
122822,96882
122746,96850
122700,96803
122743,96817
122804,96913
122769,96878
122759,96869
122732,96810
122816,96856
122888,96902
122856,96910
122850,96884
122855,96848
122943,96906
123048,96990
123019,96971
123028,96951
123027,96914
123134,96974
123218,97062
123224,96997
123214,97002
123205,96977
123306,97051
123407,97153
123423,97095
123421,97050
123423,97074
123537,97122
123646,97186
123613,97171
123620,97156
123591,97096
123752,97199
123787,97246
123813,97231
123792,97224
123789,97155
123877,97250
123968,97303
123910,97292
123907,97270
123890,97218
123959,97279
124040,97329
124017,97303
123983,97262
123897,97241
123985,97302
124006,97335
123981,97310
123906,97248
123846,97202
123946,97267
123956,97299
123912,97282
123825,97252
123764,97177
123866,97265
123861,97283
123811,97267
123776,97189
123732,97162
123792,97248
123808,97279
123750,97224
123728,97185
123667,97151
123797,97239
123802,97233
123778,97216
123744,97202
123720,97176
123862,97266
123858,97265
123826,97228
123824,97194
123845,97208
123936,97303
123924,97317
123901,97269
123928,97227
123974,97280
124074,97369
124091,97373
124060,97339
124052,97299
124100,97307
124196,97401
124176,97384
124199,97391
124171,97337
124218,97368
124293,97465
124296,97430
124332,97407
124310,97365
124355,97406
124481,97520
124497,97481
124465,97472
124463,97436
124538,97475
124656,97563
124650,97561
124660,97550
124603,97499
124713,97529
124825,97642
124792,97599
124801,97580
124797,97540
124879,97596
124989,97674
124989,97671
124944,97654
124917,97613
125030,97649
125112,97732
125142,97719
125086,97694
125040,97629
125129,97686
125202,97768
125208,97748
125190,97700
125164,97658
125222,97766
125267,97815
125287,97771
125257,97743
125236,97703
125316,97772
125377,97815
125383,97808
125339,97767
125321,97711
125422,97793
125475,97850
125471,97831
125465,97815
125396,97788
125475,97841
125570,97889
125533,97855
125529,97839
125498,97803
125579,97856
125581,97909
125555,97860
125476,97831
125399,97772
125421,97798
125417,97793
125305,97767
125176,97709
125063,97633
125054,97680
124978,97652
124834,97583
124650,97481
124508,97424
124502,97472
124371,97433
124198,97360
124061,97264
123890,97212
123883,97238
123783,97226
123659,97189
123518,97078
123395,97017
123422,97101
123350,97061
123267,97034
123183,96976
123113,96957
123151,97004
123174,96994
123123,96967
123063,96938
123055,96917
123148,97013
123163,97002
123131,96979
123075,96928
123115,96965
123259,97066
123233,97064
123224,97021
123225,96975
123295,97002
123391,97100
123423,97121
123415,97098
123389,97057
123468,97075
123571,97157
123621,97171
123592,97158
123572,97112
123678,97123
123816,97242
123827,97237
123814,97240
123798,97173
123908,97238
124012,97329
124001,97322
124016,97300
123980,97253
124085,97312
124205,97388
124169,97384
124144,97329
124122,97278
124234,97351
124301,97435
124281,97363
124290,97407
124241,97310
124290,97375
124354,97431
124345,97423
124294,97376
124242,97316
124337,97358
124353,97426
124344,97419
124265,97351
124227,97313
124286,97378
124341,97430
124272,97396
124218,97340
124173,97296
124243,97384
124286,97409
124253,97363
124192,97324
124145,97299
124215,97348
124259,97399
124227,97363
124167,97335
124147,97283
124229,97358
124278,97412
124261,97378
124239,97350
124204,97331
124271,97371
124356,97452
124325,97399
124328,97375
124277,97340
124394,97420
124458,97473
124443,97441
124392,97409
124387,97359
124522,97483
124569,97504
124531,97489
124529,97450
124538,97428
124665,97518
124688,97522
124707,97529
124676,97523
124662,97495
124799,97563
124822,97582
124868,97593
124837,97548
124834,97546
124941,97647
125025,97670
124966,97654
124951,97582
125003,97611
125112,97685
125108,97705
125127,97686
125071,97637
125085,97644
125229,97746
125227,97737
125229,97719
125225,97681
125255,97695
125368,97807
125399,97809
125346,97764
125354,97731
125415,97749
125525,97845
125539,97865
125450,97836
125449,97754
125535,97808
125591,97896
125614,97888
125586,97864
125533,97821
125583,97820
125734,97926
125694,97927
125625,97892
125598,97805
125667,97869
125764,97971
125733,97915
125717,97894
125666,97861
125767,97902
125840,97983
125821,97940
125802,97944
125728,97893
125802,97917
125856,97980
125801,97942
125771,97914
125671,97807
125681,97858
125695,97917
125609,97847
125482,97812
125303,97684
125300,97711
125259,97705
125122,97654
125004,97575
124804,97503
124787,97495
124709,97522
124541,97453
124408,97346
124256,97291
124236,97318
124134,97319
124007,97266
123866,97198
123717,97111
123756,97128
123723,97147
123641,97138
123545,97051
123456,97012
123510,97085
123523,97118
123439,97054
123412,97014
123375,96960
123445,97100
123454,97100
123447,97082
123433,97038
123420,97021
123540,97090
123556,97140
123522,97105
123516,97082
123552,97060
123639,97158
123669,97184
123660,97134
123683,97127
123710,97114
123802,97234
123844,97224
123859,97196
123811,97168
123839,97166
123965,97270
124002,97285
124029,97245
124066,97269
124073,97248
124192,97366
124212,97364
124202,97329
124213,97325
124267,97330
124385,97424
124396,97418
124378,97414
124308,97368
124376,97366
124478,97460
124463,97441
124432,97443
124356,97380
124364,97383
124481,97464
124451,97451
124426,97389
124365,97360
124378,97353
124426,97454
124414,97415
124374,97358
124329,97320
124340,97344
124381,97421
124326,97383
124274,97355
124206,97279
124237,97323
124295,97395
124236,97365
124168,97315
124136,97235
124142,97264
124238,97373
124149,97339
124091,97316
124059,97230
124132,97280
124207,97366
124133,97325
124113,97275
124068,97258
124145,97304
124228,97358
124190,97314
124185,97302
124137,97270
124220,97341
124282,97387
124291,97351
124255,97341
124230,97295
124343,97356
124389,97416
124404,97406
124355,97394
124302,97342
124413,97409
124510,97448
124505,97417
124545,97446
124506,97385
124557,97454
124669,97512
124636,97507
124664,97464
124640,97447
124746,97537
124783,97560
124781,97542
124827,97524
124787,97505
124881,97582
124937,97628
124937,97593
124925,97584
124916,97533
125038,97625
125059,97665
125034,97641
125026,97602
125040,97570
125154,97672
125184,97694
125157,97699
125152,97623
125177,97634
125293,97727
125319,97746
125315,97727
125317,97689
125286,97684
125413,97745
125446,97775
125426,97752
125398,97756
125416,97718
125533,97802
125541,97829
125523,97807
125484,97755
125510,97735
125613,97848
125586,97812
125549,97818
125453,97724
125475,97736
125510,97756
125457,97779
125364,97688
125193,97625
125144,97619
125127,97653
124972,97592
124820,97508
124631,97398
124531,97365
124526,97417
124356,97370
124156,97265
123968,97171
123844,97123
123809,97166
123662,97122
123469,97017
123363,96938
123287,96929
123261,96985
123145,96915
123026,96863
122887,96802
122919,96824
122934,96856
122869,96823
122832,96793
122707,96722
122781,96774
122821,96843
122789,96812
122794,96762
122741,96756
122833,96793
122883,96858
122840,96821
122878,96808
122860,96782
122962,96850
123018,96910
123039,96889
123007,96855
123017,96820
123083,96897
123179,96952
123198,96969
123169,96929
123170,96872
123283,96966
123403,97024
123375,97016
123384,96989
123382,96948
123536,97045
123573,97131
123580,97106
123594,97069
123595,97031
123744,97125
123790,97198
123775,97143
123789,97140
123791,97097
123907,97187
123916,97212
123931,97180
123916,97182
123899,97142
123964,97240
123986,97241
124008,97218
123925,97182
123897,97155
123980,97207
123977,97252
123973,97204
123909,97170
123857,97117
123954,97217
123923,97218
123900,97173
123880,97119
123834,97117
123934,97216
123916,97202
123870,97158
123813,97121
123814,97134
123873,97190
123879,97185
123874,97160
123829,97127
123788,97107
123901,97181
123913,97197
123863,97160
123916,97212
123851,97133
123948,97241
123914,97228
123948,97202
123880,97147
123913,97162
124005,97238
124040,97233
124014,97213
124014,97194
124009,97197
124145,97302
124154,97278
124113,97267
124094,97228
124125,97247
124214,97327
124234,97307
124262,97301
124216,97268
124276,97287
124397,97391
124382,97359
124395,97360
124347,97333
124456,97360
124530,97450
124543,97427
124559,97397
124550,97374
124645,97455
124718,97560
124679,97486
124708,97449
124687,97426
124799,97488
124854,97568
124863,97535
124833,97529
124801,97447
124900,97531
125004,97616
124971,97601
124942,97569
124917,97471
125029,97553
125107,97663
125065,97611
125077,97591
125008,97536
125128,97630
125214,97688
125167,97668
125157,97632
125112,97558
125236,97658
125294,97724
125252,97698
125220,97654
125167,97613
125196,97671
125226,97686
125125,97642
125063,97572
124909,97516
124894,97539
124817,97522
124660,97435
124559,97375
124370,97306
124295,97313
124179,97294
123992,97219
123829,97118
123590,97040
123561,97054
123437,97013
123233,96920
123074,96890
122898,96746
122898,96804
122819,96786
122702,96740
122550,96652
122437,96603
122496,96685
122441,96656
122352,96607
122304,96564
122247,96560
122316,96627
122275,96621
122245,96573
122233,96537
122212,96532
122321,96596
122313,96619
122265,96587
122267,96539
122298,96570
122421,96645
122411,96655
122394,96650
122411,96617
122458,96624
122561,96711
122568,96722
122571,96687
122591,96660
122645,96703
122732,96749
122784,96783
122774,96759
122753,96731
122826,96746
122973,96839
122957,96861
122973,96845
122966,96779
123037,96813
123140,96910
123183,96909
123199,96914
123176,96862
123251,96905
123356,97006
123372,96964
123365,96966
123347,96943
123369,96961
123465,97035
123434,97028
123421,96964
123366,96922
123427,96953
123498,97034
123438,97023
123415,96973
123303,96917
123374,96940
123425,97007
123390,96981
123326,96934
123275,96884
123312,96930
123368,96984
123302,96945
123268,96904
123193,96853
123231,96900
123311,96956
123253,96920
123220,96899
123132,96854
123229,96900
123281,96954
123229,96915
123213,96881
123158,96863
123230,96904
123276,96940
123302,96921
123268,96912
123262,96903
123352,96962
123370,96981
123405,96985
123382,96929
123356,96924
123459,96991
123506,97056
123493,97027
123468,96982
123478,96964
123552,97053
123605,97082
123619,97060
123598,97051
123586,96996
123683,97105
123728,97132
123695,97110
123699,97063
123701,97061
123808,97160
123834,97202
123835,97136
123827,97101
123879,97114
123973,97227
123990,97227
123992,97185
123969,97163
124006,97177
124121,97268
124140,97251
124147,97255
124141,97217
124158,97216
124254,97297
124275,97316
124282,97275
124247,97270
124265,97265
124430,97374
124408,97379
124430,97348
124428,97311
124457,97342
124541,97406
124552,97409
124581,97393
124570,97363
124598,97390
124684,97458
124700,97478
124686,97418
124633,97387
124618,97391
124676,97450
124607,97410
124546,97379
124454,97299
124415,97280
124390,97337
124257,97288
124132,97198
123913,97098
123844,97072
123787,97088
123602,97025
123422,96938
123238,96848
123118,96850
123007,96844
122850,96721
122688,96675
122506,96602
122399,96553
122384,96585
122218,96537
122109,96478
121962,96397
121891,96395
121915,96440
121835,96401
121755,96347
121640,96272
121709,96334
121768,96392
121682,96349
121669,96309
121612,96266
121691,96360
121751,96383
121739,96376
121719,96344
121686,96312
121796,96336
121848,96406
121881,96402
121862,96395
121826,96351
121965,96429
121990,96474
121996,96464
122042,96425
122030,96420
122103,96483
122176,96523
122209,96524
122208,96492
122235,96482
122342,96561
122436,96658
122426,96619
122415,96583
122445,96559
122559,96646
122627,96697
122619,96665
122602,96654
122558,96621
122696,96713
122759,96734
122714,96731
122688,96656
122703,96651
122821,96740
122826,96787
122777,96717
122721,96675
122748,96646
122862,96764
122851,96778
122760,96731
122740,96679
122723,96663
122801,96735
122781,96730
122750,96689
122647,96673
122653,96638
122724,96720
122715,96707
122635,96696
122573,96628
122553,96600
122621,96668
122610,96673
122550,96644
122504,96584
122512,96577
122605,96688
122572,96664
122587,96618
122527,96579
122577,96617
122672,96736
122642,96695
122651,96632
122627,96631
122655,96653
122782,96736
122766,96715
122752,96695
122695,96654
122761,96705
122849,96789
122858,96751
122839,96751
122813,96687
122893,96741
122996,96839
123001,96816
122998,96786
122959,96739
123065,96802
123176,96894
123145,96879
123215,96845
123185,96828
123266,96888
123400,96965
123367,96951
123382,96928
123378,96879
123482,96969
123520,97021
123539,96991
123534,97003
123517,96941
123623,97004
123667,97076
123672,97030
123669,97033
123636,96972
123775,97034
123814,97114
123824,97112
123813,97089
123806,97025
123911,97132
123946,97191
123937,97129
123950,97135
123943,97104
124000,97192
124038,97202
124020,97202
124040,97181
124006,97130
124071,97197
124137,97243
124075,97205
124065,97177
124020,97119
124139,97201
124104,97216
124058,97185
123931,97110
123879,97064
123895,97101
123807,97105
123666,97055
123533,96955
123345,96868
123311,96882
123216,96866
123038,96778
122831,96677
122646,96616
122596,96619
122439,96577
122246,96500
122095,96398
121918,96325
121894,96346
121770,96319
121632,96258
121509,96184
121419,96135
121401,96163
121350,96169
121274,96125
121179,96031
121173,96064
121260,96121
121212,96110
121218,96087
121160,96051
121189,96071
121273,96135
121251,96140
121298,96118
121250,96088
121296,96104
121395,96172
121423,96195
121412,96195
121396,96128
121498,96162
121563,96280
121588,96243
121579,96231
121594,96196
121659,96260
121758,96342
121772,96318
121779,96301
121728,96264
121866,96311
121950,96390
121956,96408
121992,96381
121937,96331
122078,96376
122148,96506
122157,96478
122123,96439
122118,96405
122216,96465
122290,96515
122294,96499
122295,96501
122260,96428
122366,96503
122406,96527
122377,96536
122372,96497
122364,96453
122424,96528
122470,96589
122433,96547
122428,96528
122365,96474
122438,96523
122501,96581
122464,96577
122385,96493
122364,96439
122458,96510
122502,96583
122468,96544
122398,96500
122377,96449
122460,96535
122477,96571
122442,96533
122437,96528
122366,96470
122466,96532
122525,96596
122505,96558
122458,96506
122443,96476
122551,96569
122563,96600
122562,96586
122559,96556
122558,96501
122652,96617
122678,96635
122635,96599
122679,96587
122675,96571
122807,96706
122831,96703
122852,96673
122863,96666
122850,96644
122988,96721
122999,96771
122995,96735
122999,96720
123052,96708
123141,96814
123174,96831
123174,96815
123187,96770
123196,96784
123303,96874
123353,96880
123290,96883
123299,96817
123343,96812
123466,96927
123457,96945
123440,96932
123421,96870
123498,96856
123601,96973
123618,96989
123598,96957
123571,96922
123609,96926
123724,97057
123712,97048
123665,96996
123622,96951
123697,96962
123810,97083
123781,97049
123723,97018
123721,96987
123772,97019
123828,97077
123841,97048
123826,97030
123786,97004
123838,97040
123888,97102
123871,97081
123862,97049
123866,97002
123904,97060
123974,97135
123942,97096
123920,97057
123876,97004
123939,97046
123990,97138
123941,97086
123909,97042
123769,96986
123813,97012
123823,97037
123740,96992
123564,96931
123420,96822
123355,96834
123272,96837
123122,96745
122892,96663
122709,96569
122622,96538
122500,96542
122329,96458
122098,96403
121857,96251
121800,96261
121693,96260
121535,96178
121360,96081
121199,96014
121165,96041
121072,96028
120937,95977
120822,95887
120757,95834
120798,95908
120757,95906
120681,95873
120617,95818
120562,95780
120617,95840
120675,95881
120625,95843
120625,95808
120615,95799
120767,95886
120761,95954
120741,95888
120756,95860
120774,95826
120913,95961
120944,95967
120979,95944
120940,95945
120999,95929
121113,96045
121139,96053
121180,96028
121203,96032
121225,96030
121371,96130
121442,96137
121441,96128
121444,96116
121489,96139
121637,96221
121674,96236
121669,96221
121698,96234
121685,96209
121818,96308
121850,96312
121819,96285
121789,96268
121787,96242
121957,96331
121942,96365
121880,96291
121872,96276
121886,96271
121949,96390
121929,96328
121926,96287
121875,96277
121887,96278
121943,96336
121940,96328
121871,96315
121798,96243
121815,96243
121875,96322
121863,96307
121801,96257
121744,96232
121759,96225
121800,96297
121783,96266
121742,96230
121694,96190
121743,96213
121833,96299
121776,96286
121753,96250
121713,96175
121823,96259
121864,96353
121833,96318
121814,96289
121802,96219
121891,96264
121956,96384
121941,96325
121903,96310
121862,96263
121947,96326
122013,96365
121992,96336
121980,96331
121972,96301
122056,96385
122127,96416
122115,96410
122086,96387
122067,96344
122205,96425
122261,96500
122252,96461
122264,96413
122260,96411
122395,96489
122433,96563
122428,96521
122445,96514
122428,96460
122520,96521
122598,96601
122584,96597
122571,96528
