
211132,204323,
211251,204472,
211494,204494,
211585,204632,
211851,204658,
211952,204782,
212186,204802,
212274,204939,
212500,204947,
212583,205064,
212766,205048,
212833,205174,
213005,205152,
213061,205274,
213229,205242,
213276,205350,
213398,205303,
213385,205399,
213490,205353,
213492,205437,
213633,205417,
213683,205521,
213871,205508,
213948,205636,
214198,205658,
214312,205794,
214582,205825,
214722,205996,
215001,206036,
215166,206184,
215473,206237,
215666,206403,
215988,206482,
216184,206669,
216514,206709,
216684,206887,
216986,206909,
217133,207065,
217426,207104,
217563,207261,
217864,207288,
218025,207460,
218318,207512,
218489,207669,
218786,207703,
218921,207865,
219159,207855,
219074,207889,
218687,207560,
217469,207053,
215804,206135,
213795,205287,
212271,204493,
211156,204094,
210666,203804,
210246,203706,
210130,203580,
209998,203628,
210109,203610,
210161,203710,
210393,203755,
210545,203933,
210879,203987,
211071,204197,
211419,204249,
211597,204429,
211877,204436,
211928,204568,
212108,204553,
212121,204647,
212337,204650,
212448,204823,
212726,204825,
212764,204951,
212876,204881,
212714,204894,
212667,204753,
212438,204718,
212310,204594,
212087,204579,
212042,204452,
211894,204490,
211923,204413,
211865,204465,
211999,204453,
212018,204558,
212227,204559,
212293,204699,
212560,204718,
212701,204876,
212999,204938,
213162,205102,
213488,205165,
213625,205325,
213936,205362,
214052,205499,
214309,205532,
214412,205666,
214640,205673,
214677,205777,
214848,205749,
214841,205843,
214997,205819,
214963,205923,
215113,205877,
215091,205959,
215225,205908,
215183,205989,
215306,205944,
215262,206006,
215398,205974,
215400,206064,
215537,206057,
215554,206152,
215732,206139,
215789,206266,
215970,206252,
216021,206377,
216211,206339,
216258,206460,
216455,206473,
216513,206594,
216721,206581,
216760,206704,
216985,206696,
217018,206825,
217238,206810,
217280,206934,
217485,206927,
217520,207040,
217741,207030,
217761,207138,
217941,207119,
218000,207249,
218193,207232,
218266,207352,
218538,207404,
218604,207506,
218815,207512,
218844,207610,
218885,207511,
218343,207313,
217276,206670,
215491,205894,
213727,204973,
212232,204408,
211392,203936,
210797,203778,
210544,203594,
210269,203575,
210281,203500,
210249,203571,
210420,203606,
210481,203723,
210758,203762,
210897,203919,
211233,203985,
211426,204183,
211725,204224,
211850,204370,
212047,204362,
212051,204454,
212215,204437,
212235,204535,
212457,204537,
212580,204707,
212784,204697,
212762,204751,
212782,204668,
212554,204635,
212487,204498,
212256,204482,
212202,204362,
212030,204378,
212046,204299,
211934,204354,
212030,204309,
212011,204398,
212203,204405,
212271,204514,
212526,204549,
212663,204711,
212967,204753,
213119,204921,
213417,204959,
213566,205143,
213891,205174,
214027,205340,
214293,205374,
214389,205488,
214613,205508,
214663,205608,
214857,205604,
214848,205712,
215006,205668,
214979,205746,
215092,205708,
215055,205777,
215118,205714,
215042,205771,
215150,205739,
215142,205797,
215272,205780,
215246,205847,
215387,205832,
215387,205913,
215564,205903,
215559,206012,
215753,205997,
215767,206109,
215979,206097,
216014,206211,
216221,206220,
216253,206326,
216431,206303,
216454,206423,
216649,206408,
216685,206520,
216887,206525,
216941,206641,
217169,206642,
217214,206742,
217424,206737,
217473,206875,
217693,206877,
217749,206990,
217946,206972,
217975,207086,
218207,207099,
218260,207220,
218519,207239,
218634,207384,
218914,207427,
219034,207566,
219321,207598,
219395,207706,
219494,207632,
218955,207441,
217919,206804,
216116,206030,
214216,205027,
212556,204391,
211657,203911,
211011,203729,
210768,203530,
210514,203520,
210562,203477,
210481,203559,
210721,203567,
210823,203735,
211147,203813,
211353,203993,
211731,204090,
211930,204272,
212273,204346,
212390,204468,
212595,204462,
212610,204565,
212795,204547,
212859,204691,
213142,204706,
213240,204854,
213430,204830,
213329,204881,
213298,204749,
213022,204727,
212901,204561,
212623,204507,
212517,204373,
212332,204367,
212317,204284,
212215,204317,
212327,204292,
212304,204384,
212507,204397,
212592,204520,
212887,204556,
213039,204738,
213398,204806,
213587,204997,
213946,205056,
214093,205221,
214432,205284,
214574,205449,
214896,205486,
215000,205625,
215242,205644,
215273,205743,
215428,205717,
215395,205785,
215518,205755,
215445,205819,
215521,205768,
215429,205795,
215496,205732,
215384,205792,
215486,205716,
215398,205764,
215483,205715,
215422,205782,
215533,205733,
215477,205839,
215574,205779,
215543,205828,
215667,205818,
215647,205892,
215811,205859,
215819,205974,
215996,205975,
215998,206079,
216177,206060,
216185,206125,
216346,206129,
216332,206224,
216506,206210,
216478,206276,
216616,206261,
216602,206327,
216751,206316,
216745,206407,
216956,206405,
216975,206525,
217196,206524,
217267,206639,
217500,206668,
217608,206798,
217847,206816,
217942,206949,
218134,206951,
218082,206987,
217914,206793,
217052,206439,
215714,205665,
213879,204902,
212542,204198,
211473,203811,
210969,203508,
210485,203380,
210334,203236,
210139,203259,
210235,203216,
210234,203316,
210444,203343,
210553,203493,
210885,203562,
211044,203758,
211431,203829,
211557,203997,
211842,204013,
211888,204122,
212072,204113,
212061,204205,
212263,204201,
212380,204344,
212671,204380,
212733,204482,
212835,204460,
212668,204447,
212621,204330,
212356,204281,
212295,204145,
212033,204147,
212007,204026,
211843,204037,
211886,203971,
211797,204049,
211951,204019,
211943,204112,
212159,204123,
212217,204247,
212498,204290,
212650,204447,
212966,204515,
213135,204692,
213485,204744,
213635,204931,
213954,204976,
214072,205128,
214355,205154,
214458,205294,
214682,205302,
214707,205399,
214885,205382,
214873,205468,
215011,205448,
214996,205511,
215138,205479,
215088,205563,
215213,205516,
215161,205574,
215284,205548,
215250,205621,
215408,205599,
215395,205678,
215575,205661,
215591,205765,
215799,205773,
215859,205892,
216075,205906,
216132,206029,
216374,206043,
216425,206150,
216662,206169,
216712,206284,
216981,206314,
217043,206447,
217323,206457,
217363,206582,
217617,206608,
217679,206723,
217913,206732,
217966,206866,
218205,206847,
218218,206958,
218420,206947,
218440,207050,
218635,207036,
218664,207148,
218887,207141,
218920,207253,
219119,207250,
219156,207367,
219389,207386,
219454,207490,
219706,207514,
219791,207655,
220097,207688,
220149,207811,
220326,207778,
220041,207722,
219301,207209,
217587,206461,
215640,205436,
213430,204520,
212004,203817,
211054,203512,
210664,203249,
210304,203203,
210245,203085,
210143,203152,
210292,203147,
210356,203267,
210632,203334,
210783,203492,
211089,203553,
211280,203725,
211581,203768,
211658,203914,
211862,203900,
211845,203983,
211952,203944,
211869,203977,
211953,203936,
211985,204041,
212214,204063,
212260,204168,
212394,204138,
212281,204157,
212268,204056,
212051,204042,
211996,203907,
211814,203936,
211810,203840,
211688,203866,
211762,203818,
211687,203878,
211832,203844,
211833,203949,
212025,203970,
212121,204096,
212409,204128,
212536,204291,
212815,204338,
212983,204495,
213282,204568,
213454,204730,
213742,204780,
213902,204934,
214158,204948,
214270,205085,
214515,205102,
214558,205205,
214761,205204,
214754,205306,
214898,205268,
214889,205352,
215049,205334,
215049,205420,
215212,205410,
215179,205469,
215327,205443,
215302,205535,
215469,205519,
215486,205621,
215684,205612,
215732,205727,
215954,205755,
216023,205869,
216236,205879,
216330,206009,
216568,206033,
216675,206152,
216947,206196,
217052,206337,
217338,206359,
217448,206512,
217703,206539,
217817,206672,
218068,206688,
218146,206807,
218348,206811,
218405,206915,
218598,206907,
218670,207033,
218882,207038,
218941,207153,
219147,207149,
219189,207272,
219379,207257,
219421,207372,
219636,207358,
219694,207487,
219958,207509,
220057,207659,
220332,207681,
220440,207823,
220684,207839,
220704,207945,
220665,207798,
219863,207461,
218366,206631,
216280,205712,
214279,204696,
212456,203979,
211501,203503,
210899,203329,
210650,203161,
210451,203176,
210499,203119,
210515,203232,
210739,203255,
210889,203431,
211221,203501,
211428,203677,
211807,203784,
212022,203965,
212316,204006,
212425,204153,
212593,204136,
212551,204195,
212625,204134,
212612,204213,
212809,204223,
212916,204359,
213137,204372,
213156,204463,
213202,204390,
213068,204405,
213008,204284,
212807,204274,
212760,204149,
212607,204172,
212630,204097,
212566,204159,
212646,204103,
212640,204203,
212825,204211,
212913,204343,
213188,204380,
213352,204555,
213660,204601,
213865,204783,
214193,204852,
214407,205038,
214729,205104,
214918,205293,
215241,205344,
215406,205493,
215668,205514,
215781,205673,
216001,205676,
216067,205775,
216232,205775,
216252,205888,
216404,205844,
216402,205915,
216555,205901,
216562,205992,
216709,205967,
216727,206067,
216881,206038,
216899,206154,
217066,206128,
217117,206241,
217312,206245,
217392,206364,
217603,206377,
217701,206511,
217954,206533,
218060,206669,
218314,206706,
218441,206843,
218717,206879,
218851,207030,
219120,207070,
219235,207207,
219479,207223,
219604,207358,
219865,207387,
219992,207528,
220259,207552,
220341,207696,
220573,207705,
220663,207807,
220904,207834,
220994,207972,
221245,207979,
221313,208106,
221524,208108,
221633,208226,
221853,208238,
221980,208386,
222214,208405,
222319,208529,
222576,208558,
222623,208648,
222751,208610,
222454,208514,
221500,207953,
219516,207096,
217250,205962,
215084,205073,
213442,204248,
212174,203813,
211613,203491,
211296,203444,
211307,203378,
211296,203502,
211534,203545,
211741,203741,
212138,203853,
212498,204091,
212992,204261,
213356,204509,
213825,204623,
214091,204822,
214425,204873,
214509,205000,
214688,205001,
214730,205099,
214966,205126,
215132,205281,
215403,205321,
215453,205426,
215507,205346,
215313,205347,
215167,205170,
214874,205132,
214748,204961,
214494,204928,
214427,204813,
214279,204857,
214337,204772,
214315,204866,
214466,204872,
214591,205012,
214865,205047,
215049,205240,
215394,205332,
215637,205529,
216029,205622,
216305,205821,
216697,205914,
216982,206136,
217350,206209,
217602,206414,
217945,206459,
218112,206623,
218376,206650,
218497,206801,
218725,206810,
218790,206923,
218959,206910,
218997,207014,
219143,206987,
219155,207065,
219247,207029,
219255,207104,
219333,207047,
219349,207144,
219445,207108,
219476,207203,
219619,207181,
219676,207287,
219834,207287,
219933,207408,
220123,207400,
220240,207543,
220441,207540,
220540,207683,
220775,207694,
220894,207824,
221097,207830,
221189,207954,
221384,207973,
221488,208079,
221653,208089,
221724,208169,
221878,208161,
221951,208289,
222105,208260,
222160,208381,
222315,208371,
222404,208491,
222583,208492,
222695,208613,
222882,208609,
222995,208721,
223149,208711,
223134,208782,
222902,208568,
221819,208108,
220024,207159,
217722,206192,
215722,205198,
214104,204568,
212858,203949,
212185,203762,
211914,203584,
211822,203654,
211958,203626,
212134,203816,
212453,203894,
212811,204150,
213277,204289,
213739,204594,
214228,204732,
214642,205006,
215022,205077,
215290,205288,
215542,205306,
215720,205496,
215989,205535,
216247,205728,
216559,205779,
216721,205918,
216730,205830,
216597,205827,
216348,205641,
216023,205542,
215678,205314,
215359,205247,
215121,205051,
214916,205048,
214837,204948,
214794,204999,
214895,204972,
215007,205121,
215238,205144,
215463,205348,
215745,205384,
216040,205610,
216399,205679,
216729,205934,
217075,206023,
217405,206226,
217720,206293,
217993,206509,
218309,206547,
218551,206752,
218795,206785,
218978,206938,
219139,206922,
219268,207046,
219369,207005,
219424,207124,
219508,207062,
219553,207169,
219621,207125,
219648,207201,
219701,207152,
219738,207237,
219776,207176,
219826,207270,
219886,207237,
219958,207327,
220043,207301,
220141,207421,
220275,207403,
220415,207543,
220543,207522,
220703,207667,
220859,207661,
221031,207813,
221199,207829,
221391,207972,
221559,207970,
221717,208123,
221864,208103,
222007,208234,
222130,208218,
222242,208357,
222340,208309,
222472,208441,
222583,208419,
222687,208537,
222789,208512,
222910,208636,
223018,208615,
223158,208748,
223267,208712,
223388,208833,
223465,208802,
223502,208856,
223196,208625,
222132,208157,
220115,207135,
217764,206134,
215533,205058,
213867,204398,
212626,203789,
211982,203600,
211669,203423,
211605,203479,
211622,203433,
211812,203597,
212014,203633,
212330,203878,
212655,203959,
213041,204217,
213394,204298,
213754,204541,
214013,204584,
214216,204733,
214315,204698,
214401,204803,
214447,204755,
214589,204922,
214767,204909,
214961,205078,
215069,205034,
215034,205097,
214909,204945,
214723,204926,
214534,204753,
214377,204758,
214211,204622,
214135,204653,
214090,204559,
214119,204659,
214188,204621,
214317,204759,
214451,204749,
214702,204951,
214915,204957,
215201,205179,
215482,205231,
215830,205465,
216110,205531,
216445,205743,
216716,205806,
217036,206014,
217270,206039,
217560,206242,
217753,206256,
218004,206436,
218147,206422,
218311,206566,
218407,206532,
218530,206648,
218575,206605,
218665,206733,
218694,206658,
218788,206772,
218792,206703,
218874,206803,
218912,206738,
219001,206857,
219034,206796,
219150,206924,
219201,206881,
219354,207014,
219451,206983,
219625,207126,
219738,207113,
219936,207272,
220048,207256,
220253,207403,
220354,207382,
220521,207530,
220633,207514,
220824,207681,
220940,207641,
221138,207809,
221248,207788,
221450,207948,
221598,207945,
221830,208105,
221955,208109,
222166,208268,
222258,208242,
222414,208354,
222359,208254,
221982,208110,
220782,207435,
218868,206602,
216648,205520,
214818,204769,
213243,204004,
212282,203688,
211730,203382,
211542,203365,
211469,203289,
211553,203415,
211670,203411,
211931,203610,
212169,203681,
212548,203911,
212830,204002,
213197,204207,
213418,204257,
213684,204423,
213758,204404,
213906,204519,
213874,204437,
213988,204570,
214081,204555,
214340,204724,
214464,204727,
214588,204835,
214516,204735,
214452,204737,
214227,204585,
214134,204588,
213941,204447,
213863,204467,
213737,204358,
213760,204423,
213718,204368,
213862,204479,
213904,204443,
214119,204609,
214229,204608,
214491,204793,
214652,204799,
214954,205007,
215169,205045,
215486,205248,
215687,205283,
216001,205493,
216200,205516,
216470,205694,
216612,205697,
216842,205861,
216928,205842,
217131,205966,
217183,205959,
217371,206082,
217376,206038,
217512,206138,
217512,206082,
217628,206178,
217637,206142,
217779,206246,
217787,206209,
217915,206325,
217939,206262,
218087,206400,
218105,206358,
218286,206503,
218321,206458,
218508,206592,
218566,206579,
218792,206713,
218870,206693,
219106,206852,
219166,206834,
219368,206964,
219457,206961,
219677,207106,
219802,207118,
220069,207292,
220223,207293,
220527,207494,
220693,207500,
221016,207715,
221159,207728,
221459,207893,
221590,207901,
221714,208013,
221362,207744,
220469,207328,
218675,206445,
216771,205606,
214866,204695,
213329,204069,
212276,203586,
211862,203447,
211551,203289,
211588,203370,
211556,203307,
211797,203497,
211932,203526,
212305,203746,
212544,203830,
212978,204075,
213232,204136,
213604,204345,
213752,204364,
213980,204507,
214018,204480,
214218,204624,
214356,204632,
214677,204826,
214856,204880,
215137,205031,
215097,204960,
215086,204999,
214833,204816,
214710,204805,
214435,204630,
214328,204609,
214130,204487,
214118,204530,
214015,204437,
214142,204537,
214145,204501,
214397,204672,
214497,204689,
214808,204869,
214990,204926,
215348,205117,
215569,205169,
215932,205365,
216133,205426,
216469,205630,
216649,205669,
216993,205880,
217154,205887,
217428,206058,
217513,206026,
217742,206164,
217744,206128,
217912,206260,
217903,206202,
218088,206318,
218055,206257,
218184,206378,
218151,206316,
218264,206403,
218235,206344,
218381,206449,
218361,206391,
218540,206502,
218502,206469,
218684,206585,
218707,206547,
218910,206680,
218957,206666,
219164,206803,
219248,206790,
219486,206947,
219575,206951,
219851,207093,
219939,207100,
220238,207268,
220344,207279,
220655,207462,
220775,207492,
221095,207668,
221210,207684,
221466,207828,
221435,207776,
221388,207771,
220656,207337,
219367,206759,
217458,205796,
215745,205070,
214040,204279,
212933,203838,
212166,203464,
211926,203418,
211695,203278,
211798,203394,
211814,203387,
212077,203544,
212231,203578,
212612,203807,
212796,203861,
213206,204087,
213372,204127,
213669,204286,
213713,204279,
213927,204418,
213994,204389,
214314,204591,
214484,204639,
214827,204837,
214904,204818,
215052,204895,
214846,204754,
214748,204743,
214403,204539,
214306,204532,
213994,204358,
213947,204377,
213740,204247,
213794,204313,
213709,204247,
213852,204344,
213876,204327,
214130,204494,
214209,204491,
214550,204683,
214684,204715,
215052,204919,
215215,204967,
215552,205157,
215712,205171,
216021,205361,
216138,205380,
216445,205545,
216508,205520,
216739,205669,
216711,205630,
216912,205742,
216853,205678,
217016,205772,
216933,205713,
217062,205807,
216991,205725,
217128,205822,
217050,205755,
217185,205848,
217124,205803,
217299,205892,
217234,205843,
217450,205960,
217402,205913,
217638,206041,
217646,206037,
217908,206177,
217902,206124,
218169,206287,
218178,206239,
218437,206423,
218500,206386,
218781,206567,
218841,206565,
219125,206736,
219211,206730,
219532,206904,
219628,206921,
219953,207100,
220012,207088,
220277,207217,
220157,207131,
219871,206981,
218653,206351,
217072,205619,
215043,204629,
213328,203922,
212086,203344,
211527,203131,
211076,202913,
210977,202925,
210801,202816,
210943,202938,
210942,202915,
211216,203090,
211305,203094,
211635,203289,
211722,203314,
212033,203466,
212047,203422,
212245,203538,
212136,203467,
212236,203531,
212124,203448,
212274,203551,
212291,203542,
212572,203720,
212622,203705,
212825,203809,
212694,203728,
212744,203749,
212520,203616,
212511,203652,
212309,203506,
212337,203552,
212179,203445,
212266,203539,
212185,203463,
212362,203590,
212348,203542,
212616,203702,
212654,203688,
212933,203856,
213024,203863,
213342,204065,
213489,204073,
213831,204279,
213938,204293,
214257,204469,
214332,204454,
214579,204613,
214597,204579,
214806,204707,
214779,204650,
214970,204779,
214905,204705,
215074,204824,
214964,204725,
215136,204845,
215041,204764,
215187,204868,
215114,204779,
215254,204898,
215185,204812,
215359,204925,
215286,204851,
215487,205001,
215465,204945,
215690,205093,
215718,205074,
215962,205213,
215986,205190,
216239,205338,
216269,205301,
216530,205471,
216553,205444,
216796,205590,
216811,205558,
217078,205711,
217093,205653,
217301,205815,
217287,205772,
217506,205915,
217481,205838,
217696,206005,
217668,205937,
217896,206104,
217923,206033,
218176,206206,
218237,206173,
218522,206377,
218595,206345,
218916,206557,
219012,206534,
219276,206688,
219168,206599,
218914,206464,
217673,205796,
215966,204991,
213728,203906,
212178,203287,
211091,202759,
210628,202611,
210175,202368,
210108,202407,
209959,202305,
210132,202455,
210118,202393,
210407,202597,
210466,202590,
210776,202774,
210863,202759,
211123,202930,
211089,202855,
211202,202966,
211048,202812,
211075,202875,
210895,202733,
210963,202842,
210873,202733,
211109,202887,
211174,202908,
211461,203070,
211475,203011,
211672,203170,
211575,203049,
211667,203158,
211522,203023,
211607,203117,
211482,203002,
211575,203103,
211475,202997,
211631,203126,
211607,203053,
211809,203210,
211810,203184,
212097,203351,
212136,203325,
212451,203512,
212521,203487,
212826,203703,
212910,203668,
213196,203857,
213246,203820,
213525,204002,
213550,203949,
213792,204121,
213771,204050,
213970,204219,
213952,204135,
214124,204263,
214080,204170,
214271,204328,
214201,204240,
214389,204376,
214321,204286,
214503,204437,
214470,204352,
214663,204496,
214625,204429,
214847,204595,
214844,204522,
215078,204699,
215059,204622,
215302,204798,
215316,204755,
215556,204916,
215584,204869,
215824,205051,
215872,204996,
216113,205167,
216115,205115,
216382,205306,
216407,205242,
216683,205413,
216709,205366,
216961,205537,
216977,205490,
217205,205663,
217203,205595,
217423,205763,
217414,205685,
217644,205870,
217606,205767,
217848,205955,
217812,205856,
218012,206025,
217973,205929,
218146,206094,
218147,206009,
218403,206199,
218415,206147,
218691,206355,
218749,206287,
219071,206515,
219163,206466,
219434,206683,
219444,206592,
219531,206692,
218919,206278,
217747,205755,
215615,204648,
213405,203716,
211642,202863,
210813,202575,
210151,202215,
209954,202224,
209689,202052,
209793,202181,
209746,202079,
210001,202314,
210057,202274,
210397,202510,
210495,202457,
210789,202679,
210813,202619,
211007,202779,
210909,202647,
210979,202748,
210781,202574,
210835,202662,
210682,202526,
210839,202696,
210842,202613,
211120,202819,
211163,202761,
211384,202952,
211316,202827,
211457,202956,
211283,202791,
211381,202918,
211210,202756,
211326,202885,
211213,202751,
211363,202912,
211287,202794,
211486,202975,
211470,202881,
211746,203084,
211787,203025,
212084,203246,
212145,203198,
212448,203422,
212527,203367,
212835,203604,
212930,203539,
213229,203777,
213275,203712,
213527,203906,
213525,203806,
213746,203994,
213695,203891,
213877,204040,
213810,203937,
213975,204084,
213902,203957,
214050,204127,
213976,203992,
214174,204154,
214087,204047,
214267,204217,
214223,204111,
214420,204289,
214385,204191,
214595,204370,
214603,204305,
214857,204483,
214879,204415,
215160,204636,
215195,204566,
215511,204782,
215562,204719,
215864,204950,
215929,204893,
216231,205101,
216304,205065,
216623,205294,
216669,205219,
216944,205430,
216987,205388,
217268,205568,
217302,205516,
217556,205699,
217549,205608,
217781,205790,
217765,205708,
217999,205877,
217967,205807,
218186,205977,
218145,205894,
218359,206053,
218330,205964,
218569,206130,
218569,206066,
218861,206274,
218919,206217,
219241,206446,
219301,206411,
219628,206609,
219678,206564,
219908,206738,
219713,206527,
219161,206308,
217568,205442,
215581,204554,
213171,203377,
211782,202847,
210810,202382,
210462,202305,
210101,202093,
210144,202180,
210081,202107,
210322,202312,
210391,202289,
210772,202540,
210922,202537,
211313,202800,
211440,202783,
211778,202990,
211794,202934,
211973,203064,
211851,202933,
211899,203034,
211770,202890,
211934,203044,
211943,203000,
212262,203194,
212303,203173,
212521,203306,
212380,203163,
212428,203256,
212205,203071,
212207,203150,
211991,202962,
212025,203051,
211853,202915,
211962,203028,
211857,202939,
212060,203086,
212064,203038,
212380,203236,
212442,203210,
212781,203438,
212892,203424,
213272,203673,
213415,203666,
213799,203891,
213932,203896,
214266,204112,
214338,204082,
214665,204305,
214695,204235,
214946,204402,
214884,204322,
215105,204479,
215048,204379,
215224,204522,
215135,204425,
215295,204559,
215226,204463,
215377,204595,
215317,204493,
215520,204632,
215455,204550,
215654,204690,
215608,204626,
215809,204775,
215808,204703,
216051,204891,
216055,204840,
216349,205021,
216369,204975,
216653,205168,
216679,205111,
216980,205308,
217049,205285,
217376,205485,
217420,205457,
217750,205664,
217754,205602,
218057,205799,
218062,205749,
218348,205919,
218347,205867,
218601,206040,
218584,205952,
218826,206141,
218824,206068,
219080,206251,
219091,206205,
219348,206400,
219397,206331,
219728,206533,
219773,206500,
220106,206695,
220141,206656,
220421,206844,
220261,206700,
219928,206559,
218496,205774,
216673,204935,
214184,203712,
212306,202979,
211110,202392,
210661,202293,
210237,202040,
210273,202129,
210138,202027,
210434,202244,
210484,202209,
210886,202468,
211028,202516,
211501,202762,
211691,202796,
212128,203056,
212189,203031,
212517,203226,
212427,203124,
212583,203234,
212462,203117,
212669,203275,
212674,203228,
213030,203458,
213033,203411,
213267,203536,
213084,203398,
213098,203439,
212774,203237,
212738,203264,
212460,203074,
212476,203131,
212279,202998,
212414,203107,
212302,203024,
212526,203180,
212513,203112,
212804,203317,
212868,203286,
213253,203523,
213349,203528,
213787,203776,
213888,203771,
214325,204022,
214417,204027,
214792,204253,
214850,204213,
215194,204423,
215207,204369,
215501,204556,
215467,204489,
215712,204641,
215634,204542,
215825,204677,
215711,204567,
215901,204720,
215777,204601,
215987,204757,
215900,204645,
216094,204796,
216012,204709,
216242,204866,
216200,204791,
216506,204974,
216461,204919,
216758,205102,
216776,205046,
217084,205261,
217114,205211,
217477,205423,
217522,205391,
217892,205622,
217922,205585,
218290,205790,
218321,205763,
218688,205980,
218705,205926,
219056,206130,
219063,206104,
219395,206280,
219367,206233,
219697,206408,
219682,206363,
219994,206550,
219978,206498,
220277,206683,
220250,206601,
220575,206796,
220531,206733,
220854,206893,
220789,206846,
221082,207005,
221052,206953,
221356,207132,
221307,207054,
221634,207237,
221611,207182,
221982,207398,
221967,207339,
222346,207560,
222332,207505,
222622,207671,
222375,207484,
221889,207244,
219903,206233,
217388,205088,
214797,203866,
212626,202962,
211166,202328,
210726,202198,
210263,201951,
210333,202052,
210202,201984,
210528,202176,
210591,202185,
211037,202429,
211189,202476,
211723,202761,
211885,202818,
212361,203061,
212438,203041,
212780,203232,
212622,203127,
212779,203208,
212513,203040,
212653,203144,
212504,203053,
212821,203244,
212807,203209,
213126,203376,
212977,203284,
213133,203366,
212842,203190,
212922,203252,
212661,203083,
212766,203193,
212548,203061,
212757,203183,
212617,203070,
212891,203256,
212827,203180,
213194,203384,
213201,203354,
213604,203581,
213619,203568,
214081,203809,
214158,203814,
214628,204061,
214693,204075,
215186,204301,
215235,204298,
215677,204539,
215692,204505,
216063,204695,
216029,204656,
216374,204848,
216314,204762,
216623,204933,
216526,204870,
216826,205022,
216718,204957,
217010,205105,
216894,205031,
217174,205169,
217074,205113,
217370,205266,
217259,205200,
217605,205360,
217554,205331,
217924,205519,
217905,205485,
218302,205688,
218319,205679,
218755,205881,
218789,205898,
219211,206091,
219228,206071,
219704,206315,
219714,206292,
220169,206513,
220175,206494,
220629,206710,
220621,206684,
221012,206869,
220980,206845,
221365,207025,
221318,206980,
221677,207159,
221617,207095,
221938,207273,
221839,207200,
222145,207375,
222039,207284,
222350,207436,
222235,207366,
222549,207512,
222458,207464,
222781,207624,
222728,207564,
223060,207760,
223000,207691,
223326,207843,
223187,207768,
223264,207788,
222307,207269,
220622,206488,
217718,205140,
215594,204202,
213294,203154,
212018,202647,
211185,202270,
211121,202295,
210886,202190,
211165,202373,
211195,202381,
211697,202640,
211912,202722,
212563,203073,
212847,203167,
213531,203521,
213792,203615,
214355,203909,
214474,203911,
214830,204091,
214707,203995,
214918,204111,
214773,204021,
215104,204215,
215118,204172,
215414,204346,
215292,204252,
215411,204309,
215046,204117,
215049,204129,
214654,203914,
214669,203959,
214340,203794,
214486,203872,
214345,203800,
214605,203953,
214549,203896,
214918,204105,
214963,204118,
215427,204346,
215538,204380,
216049,204631,
216205,204676,
216725,204937,
216903,204988,
217435,205262,
217595,205319,
218094,205558,
218201,205567,
218647,205793,
218719,205797,
219093,205985,
219093,205951,
219445,206130,
219408,206077,
219717,206241,
219667,206203,
219931,206330,
219864,206272,
220127,206409,
220036,206341,
220288,206479,
220197,206422,
220497,206570,
220414,206503,
220686,206656,
220645,206594,
220972,206771,
220932,206732,
221286,206906,
221285,206891,
221652,207071,
221651,207056,
221988,207225,
221966,207188,
222291,207365,
222265,207326,
222598,207482,
222574,207432,
222880,207606,
222840,207539,
223138,207709,
223057,207651,
223391,207819,
223313,207769,
223634,207930,
223593,207882,
223874,208035,
223801,207961,
224106,208119,
223988,208051,
224167,208161,
223676,207848,
222789,207399,
220446,206309,
218056,205257,
215834,204265,
214289,203579,
212715,202911,
212345,202802,
212002,202640,
212229,202798,
212264,202822,
212758,203102,
213032,203230,
213750,203579,
214140,203751,
214900,204098,
215263,204244,
215889,204552,
216074,204615,
216522,204826,
216565,204815,
216979,204998,
217042,205042,
217558,205285,
217662,205300,
218016,205470,
217835,205340,
217860,205351,
217352,205088,
217168,205033,
216607,204767,
216407,204693,
215926,204464,
215901,204471,
215631,204331,
215822,204434,
215708,204394,
216059,204559,
216096,204568,
216566,204824,
216713,204852,
217228,205115,
217402,205178,
217949,205450,
218110,205502,
218641,205749,
218795,205789,
219264,206038,
219357,206039,
219810,206256,
219852,206238,
220219,206436,
220182,206385,
220518,206547,
220460,206479,
220739,206625,
220639,206560,
220896,206692,
220750,206603,
220975,206707,
220836,206628,
221052,206746,
220915,206648,
221149,206785,
221025,206697,
221269,206845,
221142,206762,
221439,206913,
221357,206849,
221608,206998,
221556,206950,
221884,207112,
221837,207053,
222165,207241,
222159,207205,
222520,207384,
222490,207347,
222847,207543,
222861,207487,
223230,207702,
223190,207629,
223517,207792,
223392,207712,
223424,207721,
222481,207209,
220823,206461,
218055,205166,
216056,204299,
213983,203332,
212640,202829,
211786,202435,
211723,202447,
211492,202338,
211758,202518,
211816,202513,
212299,202782,
212499,202865,
213089,203199,
213387,203295,
213997,203614,
214194,203665,
214666,203897,
214720,203876,
215063,204050,
214983,203991,
215312,204187,
215351,204149,
215788,204412,
215862,204384,
216141,204539,
215962,204390,
215970,204438,
215555,204187,
215480,204184,
215038,203967,
215007,203978,
214709,203795,
214812,203899,
214658,203803,
214904,203962,
214863,203909,
215243,204124,
215327,204125,
215787,204379,
215922,204403,
216440,204671,
216616,204714,
217157,205011,
217335,205050,
217849,205323,
218034,205358,
218493,205605,
218602,205601,
219018,205836,
219062,205812,
219427,206022,
219428,205950,
219734,206150,
219702,206087,
219958,206240,
219881,206143,
220110,206295,
219985,206171,
220217,206322,
220116,206230,
220335,206392,
220241,206287,
220490,206459,
220404,206361,
220682,206558,
220634,206450,
220931,206664,
220894,206574,
221201,206767,
221169,206696,
221485,206911,
221464,206815,
221811,207039,
221811,206975,
222138,207186,
222135,207118,
222492,207335,
222479,207292,
222846,207499,
222833,207409,
223174,207618,
223136,207547,
223404,207726,
223188,207526,
222753,207336,
220916,206378,
218435,205320,
215867,204084,
213979,203292,
212170,202470,
211579,202310,
211125,202083,
211191,202174,
211114,202080,
211438,202334,
211554,202326,
212039,202656,
212276,202705,
212868,203032,
213106,203081,
213648,203385,
213784,203375,
214140,203582,
214100,203496,
214252,203639,
214094,203495,
214300,203630,
214275,203567,
214610,203806,
214642,203738,
214901,203915,
214694,203764,
214762,203821,
214485,203624,
214492,203697,
214231,203522,
214282,203593,
214093,203459,
214260,203572,
214128,203475,
214382,203647,
214367,203604,
214713,203822,
214812,203812,
215230,204052,
215358,204063,
215830,204332,
215986,204360,
216457,204629,
216637,204661,
217091,204921,
217220,204917,
217680,205194,
217787,205161,
218170,205405,
218252,205352,
218595,205562,
218601,205519,
218931,205716,
218897,205636,
219190,205816,
219138,205741,
219378,205897,
219305,205818,
219540,205955,
219501,205893,
219773,206062,
219708,205979,
220016,206160,
219979,206113,
220296,206280,
220280,206254,
220582,206435,
220601,206373,
220939,206558,
220936,206523,
221259,206696,
221276,206689,
221625,206865,
221622,206818,
221963,206997,
221960,206981,
222308,207151,
222307,207119,
222659,207309,
222659,207263,
223007,207444,
222979,207411,
223296,207578,
223199,207503,
223270,207535,
222353,207039,
220702,206260,
217810,204910,
215707,203992,
213461,202977,
212148,202449,
211349,202100,
211262,202117,
211026,202008,
211296,202161,
211368,202205,
211835,202446,
212060,202541,
212657,202866,
212937,202967,
213535,203248,
213745,203340,
214211,203556,
214246,203525,
214538,203659,
214349,203550,
214564,203674,
214505,203649,
214875,203824,
214924,203828,
215289,204007,
215159,203924,
215290,203970,
214983,203830,
214970,203829,
214618,203648,
214646,203683,
214378,203545,
214528,203625,
214338,203550,
214608,203672,
214548,203642,
214924,203835,
214965,203839,
215422,204068,
215540,204129,
216064,204339,
216199,204426,
216748,204681,
216920,204740,
217463,205004,
217616,205052,
218115,205284,
218198,205318,
218671,205522,
218698,205522,
219112,205695,
219099,205707,
219497,205858,
219449,205845,
219806,205985,
219708,205942,
220024,206073,
219929,206046,
220237,206164,
220104,206117,
220425,206241,
220290,206180,
220608,206330,
220525,206279,
220867,206430,
220771,206396,
221134,206544,
221063,206509,
221415,206665,
221363,206639,
221726,206805,
221672,206786,
222058,206934,
222012,206916,
222387,207091,
222331,207076,
222724,207239,
222677,207217,
223055,207382,
223008,207366,
223351,207507,
223283,207462,
223578,207592,
223276,207436,
222906,207208,
221077,206336,
218732,205250,
216171,204126,
214501,203359,
212573,202526,
211940,202274,
211433,202079,
211557,202162,
211462,202138,
211908,202372,
212068,202452,
212682,202750,
212999,202905,
213661,203220,
213961,203350,
214554,203614,
214688,203669,
215080,203832,
214986,203776,
215226,203905,
215145,203844,
215537,204028,
215606,204072,
216011,204258,
215911,204188,
216052,204236,
215701,204089,
215616,204009,
215150,203805,
215089,203775,
214715,203606,
214736,203623,
214505,203514,
214683,203598,
214610,203580,
214947,203726,
214973,203757,
215391,203937,
215510,204009,
215974,204219,
216106,204294,
216606,204512,
216749,204569,
217206,204772,
217343,204836,
217795,205043,
217854,205045,
218246,205242,
218277,205229,
218582,205381,
218545,205368,
218819,205465,
218708,205417,
218941,205516,
218852,205465,
219023,205547,
218932,205489,
219123,205595,
219008,205528,
219206,205630,
219126,205576,
219337,205672,
219253,205622,
219494,205726,
219435,205724,
219695,205822,
219667,205790,
219944,205929,
219920,205911,
220202,206041,
220179,206034,
220477,206176,
220499,206172,
220800,206320,
220831,206308,
221166,206476,
221171,206477,
221500,206625,
221521,206609,
221790,206748,
221680,206675,
221622,206611,
220566,206090,
218802,205230,
216370,204103,
214428,203216,
212269,202280,
211396,201931,
210737,201626,
210635,201618,
210429,201530,
210646,201659,
210670,201678,
211091,201894,
211234,201970,
211712,202212,
211921,202295,
212364,202512,
212449,202514,
212751,202677,
212653,202604,
212767,202650,
212552,202541,
212681,202620,
212586,202563,
212871,202724,
212854,202696,
213107,202826,
212971,202737,
213063,202791,
212812,202655,
212851,202675,
212583,202555,
212670,202595,
212487,202489,
212620,202568,
212541,202507,
212770,202652,
212765,202633,
213089,202798,
213124,202807,
213482,203010,
213608,203022,
214003,203254,
214140,203272,
214563,203501,
214664,203514,
215042,203732,
215157,203736,
215488,203926,
215543,203907,
215837,204083,
215829,204022,
216026,204159,
215983,204095,
216192,204231,
216136,204144,
216348,204285,
216283,204215,
216477,204352,
216410,204274,
216595,204396,
216517,204325,
216703,204446,
216669,204385,
216893,204534,
216877,204486,
217159,204658,
217188,204615,
217478,204791,
217524,204757,
217841,204950,
217909,204942,
218225,205123,
218252,205099,
218558,205267,
218641,205270,
218954,205453,
219043,205437,
219345,205617,
219413,205597,
219735,205793,
219834,205802,
220184,205990,
220264,205981,
220625,206164,
220732,206183,
221042,206370,
221096,206321,
221301,206444,
221064,206270,
220457,205975,
218528,205006,
216313,204023,
213913,202871,
211974,202065,
210807,201544,
210394,201395,
209982,201210,
210005,201245,
209940,201217,
210189,201380,
210312,201430,
210675,201620,
210851,201697,
211224,201888,
211349,201930,
211647,202058,
211629,202037,
211769,202100,
211580,202017,
211611,202018,
211400,201908,
211552,202001,
211529,202007,
211835,202155,
211916,202166,
212160,202299,
212083,202238,
212208,202279,
212014,202195,
212073,202223,
211891,202140,
211981,202185,
211838,202118,
212000,202192,
211903,202160,
212144,202263,
212125,202255,
212399,202398,
212449,202417,
212793,202569,
212860,202601,
213227,202767,
213315,202797,
213680,202990,
213778,203030,
214145,203202,
214227,203229,
214555,203386,
214608,203394,
214909,203531,
214915,203544,
215196,203643,
215158,203649,
215427,203733,
215378,203725,
215605,203826,
215538,203799,
215781,203905,
215713,203858,
215959,203965,
215903,203956,
216157,204061,
216084,204037,
216399,204160,
216362,204178,
216697,204294,
216702,204317,
217035,204466,
217068,204487,
217453,204645,
217478,204675,
217839,204819,
217898,204855,
218254,204988,
218276,205026,
218611,205151,
218640,205175,
218983,205305,
218973,205320,
219317,205449,
219320,205458,
219625,205574,
219602,205584,
219946,205712,
219963,205749,
220332,205897,
220395,205933,
220770,206096,
220820,206121,
221177,206270,
221183,206280,
221474,206374,
221270,206282,
220891,206056,
219237,205252,
217003,204192,
214703,203148,
212578,202181,
211018,201543,
210475,201308,
210017,201147,
210020,201166,
209935,201148,
210213,201288,
210334,201374,
210781,201562,
210952,201676,
211438,201882,
211645,201988,
212035,202142,
212089,202167,
212293,202232,
212128,202173,
212196,202176,
212012,202106,
212158,202164,
212179,202211,
212535,202339,
212635,202411,
212906,202517,
212816,202479,
212901,202479,
212666,202388,
212686,202372,
212455,202297,
212510,202299,
212377,202246,
212493,202293,
212481,202300,
212674,202385,
212742,202445,
213026,202565,
213166,202630,
213535,202790,
213672,202877,
214055,203033,
214251,203127,
214617,203288,
214783,203387,
215143,203507,
215260,203601,
215570,203699,
215648,203756,
215888,203828,
215920,203875,
216115,203902,
216088,203958,
216278,204004,
216253,204012,
216435,204054,
216388,204088,
216553,204096,
216512,204130,
216681,204174,
216664,204196,
216837,204221,
216832,204260,
217044,204315,
217044,204364,
217286,204429,
217367,204490,
217589,204553,
217638,204639,
217935,204710,
217958,204788,
218228,204828,
218301,204914,
218554,204974,
218598,205068,
218857,205094,
218880,205190,
219136,205217,
219158,205287,
219366,205336,
219395,205409,
219606,205411,
219612,205498,
219840,205531,
219889,205609,
220133,205639,
220205,205764,
220479,205776,
220530,205918,
220790,205947,
220829,206035,
220993,206031,
220788,205990,
220297,205618,
218599,204883,
216415,203803,
214201,202853,
212077,201812,
210723,201342,
210182,201031,
209760,200968,
209728,200878,
209693,200966,
209911,201003,
210042,201175,
210405,201244,
210625,201447,
211020,201548,
211237,201718,
211527,201772,
211586,201882,
211718,201815,
211581,201870,
211589,201761,
211459,201801,
211551,201763,
211604,201891,
211876,201928,
212005,202052,
212178,202034,
212111,202090,
212094,201983,
211923,201974,
211862,201836,
211676,201864,
211659,201770,
211590,201806,
211627,201783,
211629,201854,
211812,201855,
211890,201993,
212101,201994,
212270,202149,
212514,202174,
212734,202368,
213018,202422,
213230,202594,
213481,202646,
213699,202802,
213936,202839,
214101,203003,
214325,203015,
214444,203141,
214561,203132,
214666,203239,
214751,203187,
214805,203311,
214878,203249,
214924,203356,
214971,203299,
215038,203378,
215098,203337,
215146,203457,
215202,203393,
215295,203511,
215368,203477,
215489,203588,
215603,203556,
215736,203721,
215884,203700,
216058,203853,
216213,203861,
216436,204019,
216628,204025,
216837,204186,
217014,204198,
217259,204371,
217432,204386,
217669,204551,
217851,204559,
218092,204717,
218224,204737,
218461,204909,
218549,204881,
218769,205006,
218877,204995,
219039,205161,
219124,205111,
219291,205228,
219344,205210,
219544,205338,
219622,205312,
219824,205453,
219919,205462,
220161,205615,
220264,205621,
220535,205762,
220618,205771,
220827,205893,
220751,205807,
220528,205714,
219339,205074,
217246,204134,
214892,203002,
212712,202038,
210861,201217,
210092,200947,
209549,200683,
209395,200682,
209296,200614,
209462,200746,
209552,200755,
209864,200938,
210072,201011,
210448,201231,
210671,201295,
210984,201467,
211086,201463,
211223,201575,
211131,201446,
211114,201495,
210919,201382,
210952,201407,
210882,201360,
211102,201511,
211229,201532,
211498,201680,
211507,201647,
211623,201711,
211490,201617,
211479,201627,
211333,201540,
211408,201588,
211251,201508,
211347,201579,
211292,201527,
211452,201631,
211444,201600,
211688,201755,
211742,201735,
212040,201914,
212151,201938,
212492,202128,
212623,202148,
212975,202341,
213119,202371,
213430,202552,
213541,202557,
213863,202739,
213957,202748,
214253,202917,
214287,202890,
214549,203048,
214567,203020,
214760,203138,
214732,203081,
214920,203204,
214879,203126,
215068,203262,
215016,203202,
215189,203314,
215168,203268,
215382,203396,
215350,203362,
215565,203488,
215567,203434,
215785,203589,
215817,203560,
216093,203725,
216147,203704,
216431,203880,
216507,203860,
216810,204062,
216898,204028,
217180,204225,
217268,204181,
217571,204387,
217660,204369,
217989,204572,
218046,204541,
218356,204741,
218429,204706,
218699,204893,
218749,204848,
219035,205037,
219070,204992,
219325,205165,
219332,205094,
219548,205266,
219568,205194,
219799,205356,
219790,205281,
220007,205448,
219975,205369,
220217,205540,
220241,205470,
220472,205641,
220481,205580,
220772,205780,
220810,205724,
221105,205914,
221148,205876,
221386,206050,
221322,205926,
221139,205868,
219880,205170,
217656,204188,
214995,202929,
212966,202078,
210919,201121,
210107,200861,
209528,200553,
209408,200578,
209265,200477,
209470,200653,
209518,200642,
209902,200878,
210058,200905,
210495,201176,
210694,201213,
211103,201451,
211187,201417,
211450,201598,
211336,201473,
211399,201553,
211163,201387,
211202,201451,
211061,201333,
211303,201519,
211342,201494,
211649,201691,
211595,201599,
211782,201725,
211623,201577,
211686,201665,
211469,201501,
211569,201602,
211382,201491,
211531,201588,
211410,201508,
211640,201647,
211587,201582,
211891,201768,
211914,201730,
212294,201964,
212370,201968,
212813,202198,
212904,202215,
213339,202443,
213448,202438,
213851,202672,
213954,202667,
214364,202897,
214388,202873,
214764,203070,
214776,203056,
215147,203240,
215134,203198,
215442,203358,
215357,203307,
215658,203445,
215576,203387,
215842,203534,
215718,203440,
216002,203584,
215898,203513,
216195,203689,
216110,203619,
216426,203783,
216355,203729,
216692,203921,
216664,203868,
217035,204045,
217032,204042,
217449,204240,
217485,204246,
217915,204448,
217941,204429,
218347,204643,
218400,204629,
218799,204832,
218842,204820,
219225,205011,
219268,205009,
219679,205211,
219721,205201,
220110,205398,
220111,205382,
220486,205566,
220468,205523,
220816,205696,
220763,205652,
221089,205811,
221042,205768,
221346,205913,
221272,205862,
221573,206004,
221491,205956,
221779,206087,
221704,206052,
222003,206208,
221929,206141,
222258,206304,
222211,206262,
222545,206410,
222477,206386,
222770,206532,
222633,206428,
222597,206386,
221444,205786,
219466,204877,
216503,203542,
214535,202706,
212428,201728,
211185,201257,
210450,200938,
210405,200964,
210221,200870,
210540,201077,
210627,201100,
211170,201397,
211447,201510,
212112,201867,
212435,201957,
213018,202274,
213220,202318,
213637,202527,
213585,202457,
213800,202585,
213621,202455,
213777,202580,
213740,202495,
214099,202731,
214117,202688,
214407,202855,
214217,202697,
214217,202742,
213819,202516,
213742,202529,
213346,202285,
213332,202328,
213056,202156,
213171,202283,
213010,202158,
213238,202322,
213213,202252,
213566,202478,
213633,202445,
214073,202711,
214225,202729,
214717,203025,
214907,203054,
215412,203326,
215577,203337,
216055,203619,
216195,203610,
216633,203859,
216741,203841,
217115,204064,
217139,204013,
217428,204196,
217378,204121,
217633,204276,
217569,204205,
217819,204346,
217720,204248,
217948,204406,
217849,204311,
218085,204452,
217995,204374,
218252,204511,
218202,204450,
218502,204629,
218452,204602,
218767,204747,
218777,204728,
219114,204899,
219115,204876,
219487,205059,
219525,205056,
219923,205236,
219955,205235,
220370,205451,
220386,205443,
220772,205615,
220763,205587,
221131,205775,
221105,205741,
221468,205898,
221415,205885,
221748,206032,
221654,205986,
221976,206111,
221880,206060,
222159,206210,
222068,206121,
222389,206288,
222284,206234,
222610,206374,
222519,206339,
222847,206484,
222759,206433,
223082,206573,
222940,206517,
223164,206597,
222625,206321,
221727,205831,
219243,204715,
216749,203577,
214389,202560,
212885,201898,
211271,201217,
210921,201093,
210528,200949,
210775,201075,
210738,201085,
211240,201336,
211440,201443,
212118,201769,
212443,201921,
213164,202251,
213451,202379,
214049,202621,
214114,202655,
214432,202771,
214241,202683,
214391,202738,
214228,202686,
214559,202835,
214655,202875,
215088,203058,
215074,203048,
215283,203148,
215049,203012,
215069,203022,
214694,202851,
214673,202829,
214366,202711,
214446,202736,
214253,202657,
214473,202747,
214427,202750,
214760,202898,
214834,202944,
215277,203127,
215411,203219,
215924,203452,
216138,203544,
216682,203776,
216909,203880,
217467,204124,
217708,204230,
218224,204456,
218396,204529,
218863,204736,
218988,204782,
219408,204972,
219503,204988,
219868,205152,
219908,205162,
220237,205299,
220243,205295,
220540,205434,
220486,205411,
220757,205515,
220736,205497,
221018,205630,
221036,205631,
221379,205785,
221414,205779,
221726,205943,
221704,205910,
222018,206064,
222018,206036,
222309,206192,
222275,206147,
222547,206293,
222509,206251,
222775,206396,
222744,206347,
222988,206492,
222936,206429,
223170,206575,
223133,206505,
223346,206638,
223262,206581,
223491,206705,
223409,206628,
223611,206769,
223514,206689,
223717,206811,
223627,206724,
223793,206839,
223702,206757,
223879,206868,
223771,206803,
223945,206911,
223853,206836,
224013,206935,
223922,206860,
224090,206967,
224033,206903,
224208,207012,
224107,206943,
224281,207050,
224188,206990,
224331,207055,
224099,206895,
223654,206665,
222077,205864,
219794,204899,
217355,203797,
215346,202927,
213654,202197,
212670,201798,
211894,201488,
211869,201529,
211847,201517,
212230,201744,
212537,201874,
213179,202180,
213585,202373,
214277,202698,
214691,202871,
215304,203133,
215569,203245,
215943,203407,
215918,203384,
216077,203447,
215905,203367,
216089,203448,
216062,203448,
216458,203613,
216505,203626,
216792,203745,
216639,203668,
216718,203700,
216429,203576,
216475,203587,
216198,203463,
216267,203490,
216077,203421,
216271,203484,
216174,203465,
216494,203612,
216525,203617,
216927,203805,
217058,203895,
217544,204087,
217705,204168,
218214,204385,
218401,204478,
218911,204687,
219085,204793,
219548,204970,
219674,205035,
220099,205211,
220193,205249,
220556,205416,
220603,205427,
220908,205544,
220902,205538,
221204,205652,
221158,205642,
221412,205755,
221377,205750,
221594,205835,
221549,205818,
221757,205900,
221716,205886,
221954,205979,
221941,205965,
222164,206065,
222150,206089,
222416,206184,
222425,206186,
222673,206278,
222686,206297,
222932,206392,
222955,206412,
223198,206500,
223200,206533,
223437,206604,
223454,206610,
223628,206692,
223612,206717,
223810,206759,
223767,206768,
223953,206819,
223915,206846,
224108,206859,
224053,206895,
224212,206916,
224133,206942,
224303,206957,
224237,206982,
224362,207005,
224303,207022,
224451,207025,
224382,207050,
224512,207065,
224423,207079,
224585,207084,
224529,207095,
224648,207133,
224579,207158,
224758,207147,
224667,207186,
224795,207167,
224735,207230,
224852,207185,
224653,207183,
224258,206869,
222863,206241,
220690,205214,
218444,204316,
216686,203463,
215055,202863,
214168,202398,
213358,202151,
213167,202061,
213201,202182,
213631,202299,
214056,202606,
214768,202828,
215340,203194,
216096,203456,
216657,203780,
217327,203973,
217684,204213,
218080,204313,
218245,204437,
218428,204426,
218474,204523,
218715,204566,
218900,204730,
219220,204780,
219322,204883,
219426,204857,
219298,204873,
219206,204742,
218958,204708,
218789,204546,
218601,204537,
218502,204422,
218429,204466,
218466,204412,
218524,204527,
218701,204529,
218914,204702,
219149,204737,
219401,204936,
219720,205000,
220067,205221,
220370,205278,
220684,205480,
220985,205543,
221272,205753,
221493,205757,
221716,205930,
221904,205933,
222102,206066,
222205,206042,
222345,206170,
222411,206139,
222506,206238,
222516,206163,
222626,206268,
222612,206200,
222676,206277,
222668,206231,
222769,206314,
222717,206251,
222804,206344,
222777,206277,
222903,206375,
222862,206309,
223020,206416,
223039,206375,
223195,206489,
223209,206464,
223370,206570,
223399,206542,
223538,206639,
223536,206584,
223683,206696,
223692,206656,
223823,206755,
223831,206717,
223932,206818,
223913,206767,
224035,206851,
224001,206792,
224116,206903,
224066,206832,
224187,206942,
224117,206858,
224256,206943,
224182,206872,
224319,206975,
224267,206918,
224410,207018,
224348,206961,
224496,207055,
224435,207002,
224586,207093,
224474,206997,
224434,206985,
223776,206606,
222528,206026,
220366,205044,
218485,204249,
216523,203373,
215151,202815,
214045,202328,
213533,202161,
213139,201989,
213345,202133,
213486,202169,
213980,202468,
214394,202606,
215055,202969,
215527,203122,
216157,203435,
216497,203548,
216973,203798,
217100,203805,
217373,203953,
217366,203885,
217599,204070,
217680,204033,
218050,204273,
218170,204250,
218415,204413,
218284,204280,
218278,204330,
217970,204119,
217838,204134,
217481,203903,
217370,203940,
217107,203734,
217125,203813,
216995,203692,
217144,203846,
217148,203778,
217498,204003,
217606,203976,
217991,204249,
218183,204240,
218615,204506,
218808,204529,
219229,204800,
219392,204795,
219832,205070,
219984,205044,
220363,205277,
220443,205244,
220740,205434,
220758,205369,
221008,205547,
220992,205471,
221188,205620,
221131,205522,
221318,205672,
221225,205560,
221399,205695,
221256,205580,
221420,205719,
221342,205614,
221520,205764,
221441,205675,
221656,205825,
221599,205740,
221857,205914,
221836,205840,
222093,206014,
222068,205948,
222383,206127,
222357,206074,
222671,206245,
222660,206202,
222951,206378,
222939,206312,
223223,206472,
223166,206410,
223451,206578,
223392,206495,
223675,206681,
223586,206595,
223862,206730,
223757,206652,
223997,206794,
223849,206679,
224099,206833,
223936,206748,
224187,206873,
224024,206778,
224247,206885,
224092,206798,
224349,206933,
224181,206863,
224439,206987,
224312,206901,
224569,207042,
224429,206937,
224679,207098,
224510,206974,
224612,207048,
223943,206650,
222879,206144,
220498,205075,
218531,204235,
216345,203241,
214883,202654,
213611,202082,
213067,201917,
212615,201714,
212811,201853,
212825,201856,
213325,202123,
213571,202226,
214231,202558,
214564,202663,
215209,202976,
215475,203052,
215977,203319,
216004,203300,
216283,203411,
216098,203305,
216248,203387,
216052,203270,
216324,203413,
216284,203390,
216650,203579,
216574,203500,
216768,203606,
216485,203446,
216507,203490,
216199,203319,
216263,203364,
216008,203225,
216159,203322,
216001,203226,
216255,203372,
216192,203319,
216518,203496,
216560,203485,
216971,203709,
217059,203709,
217572,203977,
217708,203988,
218243,204277,
218398,204295,
218877,204554,
219000,204548,
219444,204806,
219528,204770,
219895,205008,
219903,204937,
220238,205156,
220190,205069,
220481,205249,
220403,205153,
220680,205349,
220589,205227,
220845,205405,
220750,205283,
220985,205455,
220877,205336,
221135,205523,
221054,205444,
221342,205611,
221278,205513,
221571,205704,
221543,205623,
221829,205837,
221823,205756,
222137,205957,
222134,205888,
222438,206074,
222444,206037,
222755,206216,
222739,206165,
223043,206348,
223021,206284,
223292,206461,
223255,206387,
223536,206550,
223466,206475,
223719,206629,
223629,206541,
223866,206707,
223771,206616,
224037,206748,
223898,206667,
224126,206815,
223984,206699,
224208,206824,
224082,206752,
224308,206872,
224172,206784,
224398,206906,
224273,206833,
224512,206954,
224408,206891,
224683,207012,
224515,206932,
224761,207061,
224600,206989,
224762,207036,
224222,206747,
223466,206356,
221331,205388,
219434,204593,
217328,203637,
215806,202982,
214392,202386,
213786,202142,
213140,201907,
213325,202021,
213295,202029,
213874,202283,
214117,202422,
214860,202765,
215236,202914,
215980,203253,
216244,203375,
216820,203606,
216913,203652,
217239,203778,
217070,203709,
217264,203785,
217103,203710,
217446,203878,
217475,203890,
217895,204059,
217826,204018,
218040,204124,
217794,203992,
217852,204005,
217519,203850,
217538,203878,
217244,203734,
217365,203790,
217147,203700,
217364,203800,
217272,203766,
217616,203914,
217669,203937,
218056,204120,
218178,204177,
218650,204390,
218780,204439,
219267,204658,
219384,204700,
219833,204904,
219935,204923,
220315,205108,
220343,205102,
220671,205239,
220660,205219,
220936,205361,
220876,205330,
221131,205439,
221045,205377,
221243,205489,
221131,205432,
221321,205506,
221211,205457,
221418,205550,
221279,205459,
221471,205587,
221369,205505,
221568,205603,
221488,205570,
221707,205696,
221628,205625,
221891,205776,
221877,205731,
222129,205877,
222115,205830,
222382,205978,
222356,205933,
222627,206106,
222608,206047,
222870,206190,
222836,206126,
223065,206291,
223024,206226,
223265,206375,
223222,206315,
223448,206441,
223386,206374,
223586,206514,
223506,206422,
223703,206573,
223642,206478,
223857,206615,
223820,206560,
224029,206696,
223985,206624,
224202,206759,
224156,206703,
224332,206824,
224234,206732,
224274,206778,
223750,206456,
222715,205974,
220650,205023,
218618,204159,
216454,203179,
214942,202565,
213744,202036,
213139,201836,
212737,201660,
212892,201762,
212936,201812,
213416,202048,
213693,202156,
214318,202464,
214671,202604,
215303,202887,
215554,202990,
216060,203221,
216131,203236,
216364,203315,
216252,203253,
216407,203308,
216279,203280,
216623,203444,
216711,203471,
217111,203638,
217089,203639,
217285,203691,
217029,203585,
217088,203612,
216746,203442,
216737,203445,
216453,203328,
216546,203354,
216375,203285,
216617,203400,
216582,203383,
216921,203538,
216980,203584,
217385,203761,
217521,203821,
217977,204013,
218149,204099,
218626,204304,
218815,204406,
219287,204598,
219448,204668,
219867,204839,
219948,204898,
220282,205020,
220330,205050,
220583,205126,
220551,205133,
220794,205215,
220708,205182,
220894,205260,
220836,205244,
221038,205308,
220955,205299,
221160,205364,
221095,205340,
221284,205411,
221222,205403,
221436,205462,
221395,205479,
221615,205546,
221610,205572,
221857,205635,
221873,205673,
222128,205741,
222148,205781,
222375,205854,
222384,205911,
222653,205978,
222687,206047,
222944,206102,
222937,206154,
223172,206188,
223149,206242,
223365,206287,
223384,206348,
223572,206356,
223558,206419,
223741,206422,
223706,206481,
223883,206471,
223825,206544,
224009,206548,
223942,206589,
224100,206582,
224055,206635,
224191,206617,
224125,206674,
224249,206649,
224203,206714,
224339,206682,
224307,206753,
224419,206740,
224419,206803,
224555,206769,
224511,206857,
224643,206817,
224558,206859,
224528,206750,
223876,206487,
222426,205693,
220100,204746,
217888,203704,
215700,202818,
214196,202096,
213048,201725,
212513,201439,
212291,201429,
212384,201419,
212570,201624,
212951,201722,
213329,201988,
213816,202128,
214292,202420,
214735,202537,
215081,202771,
215373,202793,
215500,202931,
215520,202851,
215461,202882,
215354,202756,
215328,202833,
215416,202794,
215609,202968,
215847,203000,
216043,203139,
216105,203099,
216151,203157,
216051,203052,
216031,203089,
215909,202996,
215874,203050,
215808,202968,
215895,203049,
215904,203004,
216088,203127,
216194,203121,
216424,203301,
216611,203339,
216963,203523,
217197,203601,
217578,203796,
217803,203859,
218195,204076,
218428,204151,
218807,204334,
219030,204388,
219364,204571,
219531,204598,
219829,204782,
219949,204788,
220181,204913,
220270,204909,
220475,205048,
220479,205011,
220675,205136,
220662,205085,
220828,205196,
220820,205159,
220974,205244,
220992,205222,
221164,205329,
221152,205294,
221387,205429,
221426,205416,
221667,205540,
221678,205513,
221949,205665,
221969,205632,
222252,205784,
222322,205778,
222566,205925,
222606,205893,
222851,206047,
222876,206018,
223126,206160,
223132,206128,
223403,206263,
223402,206232,
223645,206384,
223636,206325,
223845,206453,
223843,206408,
224037,206547,
223984,206461,
224183,206623,
224149,206537,
224318,206678,
224259,206585,
224428,206747,
224367,206630,
224551,206800,
224485,206685,
224615,206810,
224562,206715,
224722,206881,
224660,206760,
224839,206918,
224772,206814,
224960,206967,
224901,206864,
225064,207001,
224970,206881,
225152,207038,
224951,206869,
224710,206801,
223589,206134,
221639,205326,
219283,204255,
217409,203506,
215601,202640,
214556,202285,
213607,201844,
213388,201864,
213310,201780,
213727,202052,
213966,202136,
214616,202484,
215062,202639,
215799,203018,
216213,203151,
216850,203495,
217100,203536,
217514,203744,
217520,203690,
217735,203820,
217603,203708,
217837,203869,
217839,203838,
218251,204057,
218296,204034,
218556,204155,
218337,204028,
218391,204078,
218017,203871,
218001,203889,
217597,203693,
217635,203729,
217332,203564,
217474,203656,
217315,203555,
217620,203718,
217573,203694,
217986,203892,
218009,203881,
218474,204119,
218576,204131,
219039,204371,
219146,204389,
219632,204609,
219711,204619,
220167,204858,
220207,204826,
220623,205050,
220612,204996,
220936,205178,
220885,205113,
221159,205259,
221033,205162,
221272,205304,
221147,205236,
221385,205341,
221229,205255,
221451,205370,
221295,205285,
221513,205387,
221349,205303,
221574,205427,
221427,205340,
221690,205492,
221583,205395,
221883,205556,
221789,205482,
222136,205658,
222043,205593,
222385,205761,
222309,205708,
222639,205878,
222604,205826,
222926,206005,
222865,205954,
223208,206135,
223151,206054,
223460,206224,
223385,206166,
223661,206303,
223574,206252,
223834,206404,
223727,206283,
223972,206452,
223849,206355,
224092,206517,
223972,206411,
224186,206568,
224075,206427,
224319,206616,
224203,206507,
224459,206680,
224338,206563,
224567,206730,
224432,206597,
224565,206722,
224133,206427,
223371,206081,
221394,205121,
219428,204316,
217133,203245,
215535,202606,
214183,202016,
213513,201785,
212963,201516,
213087,201661,
213057,201637,
213525,201884,
213785,201997,
214453,202329,
214821,202456,
215531,202819,
215833,202913,
216409,203190,
216554,203213,
216921,203385,
216833,203328,
217038,203427,
216887,203319,
217173,203490,
217198,203506,
217620,203692,
217604,203660,
217894,203786,
217630,203649,
217687,203674,
217338,203506,
217360,203505,
217008,203340,
217095,203394,
216828,203271,
217035,203373,
216931,203341,
217277,203499,
217273,203495,
217769,203713,
217820,203743,
218364,203990,
218477,204058,
219016,204268,
219123,204315,
219636,204552,
219738,204579,
220233,204819,
220305,204827,
220711,205005,
220722,205005,
221051,205163,
220966,205111,
221253,205222,
221160,205189,
221419,205285,
221296,205234,
221552,205351,
221425,205294,
221647,205398,
221538,205328,
221742,205423,
221635,205391,
221904,205492,
221792,205441,
222035,205552,
222013,205527,
222292,205659,
222250,205629,
222545,205781,
222508,205741,
222800,205891,
222797,205870,
223087,206004,
223071,205979,
223368,206104,
223326,206077,
223593,206219,
223548,206182,
223807,206303,
223779,206256,
224020,206395,
223937,206340,
224183,206473,
224107,206419,
224320,206543,
224220,206457,
224427,206594,
224318,206496,
224511,206626,
224413,206536,
224584,206646,
224487,206580,
224673,206697,
224577,206609,
224773,206738,
224683,206654,
224879,206791,
224790,206707,
224982,206829,
224899,206732,
225032,206854,
224850,206717,
224523,206561,
223187,205864,
221223,205025,
218859,203961,
216943,203127,
215154,202374,
214156,201988,
213343,201630,
213193,201625,
213086,201587,
213421,201785,
213648,201875,
214210,202154,
214588,202318,
215254,202631,
215605,202760,
216185,203030,
216405,203129,
216792,203268,
216757,203250,
216911,203311,
216690,203187,
216807,203237,
216726,203217,
217012,203353,
217043,203361,
217376,203500,
217273,203454,
217406,203496,
217174,203386,
217246,203405,
216997,203294,
217081,203340,
216898,203271,
217089,203327,
216996,203329,
217293,203426,
217290,203441,
217669,203618,
217745,203665,
218173,203837,
218333,203936,
218793,204111,
218926,204175,
219377,204388,
219515,204439,
219930,204613,
220042,204662,
220408,204810,
220494,204865,
220832,204992,
220835,204992,
221113,205099,
221101,205109,
221302,205182,
221246,205172,
221436,205233,
221368,205211,
221555,205298,
221532,205285,
221728,205339,
221693,205340,
221898,205399,
221855,205432,
222082,205486,
222075,205528,
222305,205580,
222315,205627,
222560,205693,
222552,205726,
222787,205785,
222810,205849,
223039,205887,
223036,205945,
223240,205979,
223245,206034,
223432,206068,
223415,206133,
223607,206139,
223577,206196,
223768,206202,
223719,206242,
223855,206250,
223831,206318,
223965,206279,
223923,206340,
224054,206326,
224002,206374,
224102,206350,
224070,206418,
224189,206357,
224146,206443,
224281,206415,
224277,206485,
224404,206481,
224420,206569,
224535,206522,
224518,206592,
224585,206553,
224373,206528,
223855,206138,
222366,205533,
220540,204637,
218454,203807,
216599,202924,
215131,202365,
214233,201939,
213687,201807,
213496,201668,
213534,201795,
213806,201839,
214134,202093,
214601,202230,
215080,202521,
215596,202673,
216074,202956,
216431,203042,
216757,203220,
216886,203215,
216985,203307,
216949,203217,
217007,203285,
217016,203248,
217214,203399,
217370,203419,
217565,203537,
217560,203464,
217524,203490,
217294,203349,
217164,203331,
216876,203151,
216778,203152,
216569,203014,
216552,203065,
216469,202987,
216584,203084,
216609,203058,
216836,203213,
216949,203216,
217263,203400,
217431,203454,
217810,203666,
218006,203682,
218378,203904,
218569,203945,
218935,204125,
219083,204176,
219428,204332,
219504,204351,
219802,204508,
219854,204496,
220072,204621,
220041,204562,
220200,204664,
220110,204596,
220272,204692,
220201,204616,
220360,204718,
220300,204660,
220440,204762,
220379,204689,
220545,204811,
220474,204725,
220654,204843,
220644,204799,
220844,204936,
220837,204884,
221082,205041,
221090,204997,
221330,205149,
221363,205107,
221618,205265,
221645,205248,
221877,205407,
221903,205359,
222166,205534,
222156,205451,
222378,205637,
222346,205541,
222544,205697,
222546,205622,
222730,205781,
222694,205693,
222905,205869,
222868,205768,
223073,205946,
223049,205855,
223274,206009,
223245,205923,
223436,206100,
223403,206001,
223561,206121,
223399,205993,
223134,205891,
221957,205262,
220391,204613,
218113,203513,
216188,202728,
214524,201977,
213676,201687,
212896,201301,
212739,201344,
212524,201210,
212771,201380,
212870,201395,
213343,201670,
213567,201724,
214100,202024,
214338,202061,
214820,202316,
214907,202305,
215213,202450,
215100,202358,
215248,202478,
215028,202317,
215167,202425,
215082,202346,
215444,202560,
215464,202521,
215797,202708,

