225250,211010,
225348,211100,
225250,211004,
225341,211064,
225252,210982,
225342,211049,
225251,210969,
225300,211031,
225207,210954,
225271,211007,
225202,210937,
225261,211006,
225166,210919,
225253,210976,
225183,210907,
225241,210975,
225171,210892,
225239,210947,
225166,210875,
225217,210936,
225130,210867,
225219,210913,
225136,210830,
225204,210899,
225154,210858,
225238,210903,
225152,210831,
225213,210905,
225142,210836,
225224,210925,
225164,210847,
225233,210905,
225164,210849,
225271,210912,
225188,210844,
225255,210897,
225226,210850,
225291,210904,
225236,210844,
225308,210916,
225213,210855,
225293,210904,
225216,210834,
225305,210899,
225217,210844,
225298,210904,
225237,210830,
225300,210886,
225210,210825,
225299,210881,
225216,210820,
225276,210858,
225193,210812,
225251,210860,
225192,210804,
225280,210859,
225182,210783,
225277,210854,
225173,210788,
225275,210860,
225186,210790,
225271,210869,
225186,210816,
225269,210861,
225200,210809,
225292,210885,
225214,210827,
225296,210887,
225214,210820,
225326,210877,
225239,210836,
225357,210895,
225290,210845,
225378,210900,
225298,210858,
225389,210902,
225298,210870,
225387,210882,
225302,210833,
225396,210881,
225287,210840,
225416,210884,
225325,210846,
225436,210895,
225347,210852,
225454,210894,
225344,210819,
225431,210877,
225326,210804,
225421,210855,
225326,210812,
225402,210853,
225298,210798,
225416,210857,
225296,210801,
225392,210851,
225305,210801,
225416,210869,
225299,210803,
225400,210854,
225305,210798,
225397,210858,
225301,210787,
225374,210832,
225275,210773,
225390,210832,
225289,210784,
225398,210845,
225299,210769,
225400,210824,
225314,210791,
225415,210840,
225348,210784,
225437,210839,
225366,210783,
225453,210846,
225383,210793,
225454,210840,
225358,210774,
225453,210832,
225364,210774,
225451,210812,
225377,210786,
225452,210830,
225360,210783,
225471,210820,
225386,210765,
225445,210820,
225395,210767,
225449,210804,
225355,210768,
225478,210814,
225398,210769,
225487,210812,
225403,210775,
225390,210832,
225390,210804,
225289,210784,
225408,210755,
225482,210804,
225399,210755,
225475,210795,
225406,210758,
225494,210797,
225447,210765,
225523,210802,
225447,210759,
225502,210783,
225451,210765,
225512,210777,
225431,210747,
225503,210765,
225436,210725,
225514,210780,
225423,210720,
225498,210772,
225410,210713,
225509,210758,
225432,210719,
225525,210754,
225452,210711,
225524,210747,
225426,210712,
225510,210752,
225443,210700,
225546,210748,
225451,210710,
225539,210760,
225444,210699,
225549,210746,
225466,210704,
225532,210744,
225456,210693,
225528,210764,
225461,210692,
225514,210731,
225459,210686,
225509,210729,
225426,210675,
225513,210729,
225463,210677,
225521,210729,
225449,210688,
225497,210719,
225425,210668,
225479,210710,
225420,210669,
225483,210689,
225421,210640,
225462,210697,
225426,210637,
225492,210678,
225416,210632,
225494,210673,
225408,210630,
225476,210675,
225416,210626,
225473,210662,
225413,210622,
225508,210670,
225449,210615,
225503,210650,
225448,210608,
225505,210645,
225435,210594,
225496,210634,
225435,210606,
225481,210642,
225424,210593,
225497,210637,
225441,210597,
225501,210641,
225451,210597,
225533,210649,
225467,210576,
225528,210657,
225481,210594,
225539,210647,
225475,210567,
225516,210637,
225457,210581,
225524,210630,
225461,210571,
225529,210639,
225474,210571,
225559,210640,
225496,210594,
225577,210654,
225545,210596,
225583,210649,
225543,210579,
225601,210658,
225561,210588,
225627,210654,
225559,210605,
225647,210653,
225589,210600,
225662,210663,
225590,210613,
225669,210660,
225635,210615,
225659,210662,
225591,210593,
225646,210647,
225584,210592,
225649,210643,
225591,210581,
225638,210645,
225578,210581,
225636,210636,
225600,210580,
225638,210626,
225592,210559,
225654,210629,
225583,210562,
225619,210606,
225547,210552,
225588,210583,
225535,210531,
225584,210583,
225518,210547,
225593,210592,
225539,210538,
225611,210585,
225550,210539,
225625,210604,
225574,210548,
225616,210578,
225581,210548,
225629,210579,
225595,210544,
225629,210578,
225563,210526,
225606,210568,
225581,210536,
225629,210579,
225566,210520,
225625,210575,
225574,210528,
225624,210576,
225581,210542,
225614,210558,
225544,210526,
225625,210558,
225566,210497,
225627,210554,
225579,210521,
225644,210564,
225611,210522,
225641,210563,
225584,210527,
225656,210559,
225579,210510,
225638,210542,
225585,210503,
225641,210532,
225591,210503,
225645,210537,
225588,210498,
225660,210542,
225588,210496,
225659,210523,
225567,210496,
225618,210525,
225569,210484,
225609,210507,
225549,210481,
225633,210498,
225559,210464,
225627,210504,
225580,210469,
225644,210511,
225580,210469,
225631,210507,
225581,210467,
225635,210500,
225561,210460,
225641,210479,
225570,210463,
225629,210477,
225565,210447,
225658,210491,
225573,210451,
225644,210482,
225568,210456,
225653,210477,
225557,210419,
225635,210477,
225575,210428,
225659,210487,
225592,210436,
225656,210467,
225590,210436,
225663,210464,
225579,210424,
225624,210465,
225571,210422,
225648,210460,
225579,210439,
225654,210475,
225577,210412,
225661,210462,
225591,210416,
225660,210463,
225596,210407,
225664,210457,
225582,210423,
225673,210451,
225608,210447,
225697,210458,
225620,210424,
225690,210477,
225623,210418,
225707,210446,
225634,210418,
225692,210459,
225635,210432,
225724,210457,
225637,210430,
225711,210465,
225622,210417,
225722,210447,
225633,210417,
225720,210435,
225634,210413,
225725,210435,
225662,210433,
225747,210457,
225660,210401,
225753,210438,
225686,210396,
225742,210434,
225705,210404,
225753,210426,
225678,210415,
225760,210436,
225687,210397,
225767,210429,
225695,210409,
225754,210412,
225692,210396,
225757,210422,
225709,210399,
225770,210424,
225705,210391,
225752,210420,
225710,210386,
225758,210411,
225702,210378,
225760,210412,
225716,210376,
225789,210412,
225724,210383,
225776,210404,
225738,210372,
225769,210396,
225721,210377,
225774,210396,
225735,210371,
225776,210387,
225731,210358,
225775,210391,
225728,210364,
225782,210384,
225706,210359,
225780,210387,
225738,210365,
225779,210365,
225739,210349,
225769,210378,
225724,210339,
225770,210369,
225723,210353,
225746,210367,
225726,210329,
225771,210352,
225741,210344,
225789,210368,
225724,210326,
225771,210345,
225719,210329,
225770,210360,
225740,210338,
225789,210334,
225746,210323,
225788,210340,
225733,210323,
225804,210329,
225748,210322,
225794,210329,
225743,210308,
225781,210308,
225753,210290,
225784,210307,
225750,210313,
225816,210324,
225761,210319,
225816,210308,
225759,210319,
225796,210311,
225745,210312,
225807,210311,
225742,210306,
225810,210284,
225741,210284,
225805,210283,
225741,210290,
225801,210271,
225762,210290,
225809,210274,
225747,210284,
225793,210278,
225775,210308,
225833,210283,
225763,210280,
225826,210282,
225766,210276,
225817,210274,
225779,210265,
225804,210265,
225784,210269,
225813,210249,
225767,210265,
225810,210274,
225790,210275,
225815,210270,
225802,210269,
225824,210256,
225785,210271,
225829,210256,
225784,210269,
225822,210265,
225789,210264,
225828,210249,
225808,210260,
225832,210240,
225805,210277,
225832,210234,
225804,210269,
225840,210238,
225827,210252,
225869,210244,
225833,210276,
225864,210234,
225826,210266,
225861,210229,
225815,210249,
225854,210225,
225834,210243,
225880,210231,
225827,210256,
225867,210217,
225828,210232,
225865,210217,
225837,210252,
225875,210202,
225838,210235,
225871,210215,
225840,210239,
225866,210201,
225845,210221,
225883,210197,
225829,210231,
225893,210198,
225855,210243,
225887,210198,
225846,210217,
225879,210181,
225857,210214,
225870,210183,
225842,210216,
225864,210177,
225843,210211,
225873,210172,
225851,210201,
225866,210186,
225852,210199,
225868,210185,
225838,210189,
225873,210181,
225859,210190,
225871,210161,
225839,210189,
225867,210147,
225852,210187,
225864,210171,
225838,210192,
225860,210172,
225855,210192,
225859,210156,
225855,210190,
225870,210175,
225875,210202,
225900,210173,
225888,210205,
225908,210149,
225904,210203,
225921,210171,
225900,210194,
225886,210152,
225910,210178,
225912,210152,
225908,210212,
225915,210148,
225915,210190,
225899,210150,
225917,210187,
225906,210174,
225916,210196,
225926,210153,
225931,210177,
225931,210147,
225947,210181,
225919,210146,
225939,210189,
225924,210153,
225937,210161,
225935,210139,
225948,210183,
225934,210152,
225968,210174,
225956,210138,
225966,210168,
225949,210149,
225952,210182,
225955,210142,
225953,210177,
225959,210141,
225991,210174,
225963,210134,
225985,210180,
225952,210139,
225985,210171,
225948,210121,
225976,210163,
225972,210129,
225978,210169,
225968,210134,
226013,210166,
225979,210132,
226017,210172,
225995,210129,
226034,210174,
226001,210132,
226043,210165,
226009,210122,
226030,210165,
225983,210124,
226035,210178,
226000,210124,
226045,210146,
226008,210104,
226034,210161,
226007,210111,
226041,210146,
225996,210103,
226046,210157,
225980,210113,
226057,210148,
226005,210107,
226029,210150,
225999,210098,
226023,210140,
225982,210096,
226008,210139,
225983,210095,
226027,210143,
225978,210091,
226020,210138,
225988,210090,
226027,210131,
225989,210088,
226033,210136,
225992,210073,
226014,210122,
225995,210065,
226023,210120,
225989,210068,
226038,210110,
226001,210078,
226028,210106,
225988,210057,
226036,210113,
225993,210079,
226035,210111,
225986,210062,
226021,210096,
225975,210061,
226014,210097,
225946,210049,
226003,210108,
225956,210045,
226006,210095,
225963,210063,
226011,210102,
225931,210038,
225992,210088,
225943,210029,
225989,210069,
225909,210010,
225965,210067,
225924,210026,
225975,210075,
225920,210023,
225981,210066,
225914,210017,
225985,210061,
225947,210024,
226016,210083,
225955,210025,
226004,210068,
225970,210030,
226057,210086,
225986,210032,
226075,210084,
226008,210043,
226071,210063,
226007,210028,
226072,210060,
226012,210013,
226080,210074,
226038,210030,
226086,210066,
226050,210032,
226095,210074,
226034,210037,
226089,210068,
226043,210032,
226114,210089,
226053,210029,
226110,210075,
226051,210022,
226121,210088,
226071,210018,
226118,210095,
226105,210032,
226164,210083,
226112,210026,
226157,210098,
226122,210022,
226195,210101,
226141,210036,
226193,210086,
226149,210029,
226197,210080,
226171,210025,
226226,210076,
226185,210042,
226247,210095,
226188,210035,
226214,210086,
226179,210026,
226220,210091,
226177,210034,
226221,210081,
226180,210021,
226246,210112,
226178,210023,
226224,210108,
226156,210025,
226221,210080,
226173,210022,
226212,210103,
226159,210027,
226210,210089,
226180,210042,
226226,210086,
226176,210011,
226244,210095,
226182,210029,
226239,210095,
226194,210015,
226252,210078,
226190,210027,
226253,210073,
226198,210021,
226257,210091,
226206,210001,
226255,210078,
226193,209999,
226264,210072,
226202,210011,
226289,210073,
226216,210004,
226279,210083,
226212,210008,
226299,210074,
226235,209998,
226310,210072,
226244,209994,
226318,210065,
226248,210015,
226302,210066,
226253,210003,
226303,210048,
226262,210010,
226310,210065,
226258,209989,
226301,210057,
226247,209994,
226279,210066,
226242,209996,
226332,210064,
226248,209995,
226309,210046,
226250,209980,
226315,210042,
226246,209968,
226296,210050,
226237,209975,
226308,210028,
226239,209991,
226309,210044,
226240,209981,
226309,210036,
226235,209975,
226276,210030,
226229,209966,
226282,210021,
226215,209963,
226265,210006,
226212,209964,
226252,210007,
226187,209959,
226252,210000,
226201,209955,
226254,210027,
226184,209951,
226229,210003,
226161,209928,
226238,209993,
226158,209931,
226228,209990,
226158,209925,
226222,209977,
226158,209909,
226235,209969,
226152,209908,
226221,209964,
226132,209897,
226195,209966,
226124,209905,
226209,209959,
226127,209894,
226201,209947,
226136,209882,
226209,209951,
226127,209872,
226199,209947,
226127,209878,
226202,209956,
226117,209888,
226208,209922,
226099,209873,
226188,209941,
226106,209861,
226176,209911,
226098,209856,
226188,209910,
226071,209850,
226180,209912,
226097,209841,
226189,209905,
226119,209853,
226197,209914,
226103,209843,
226191,209882,
226097,209844,
226196,209896,
226086,209827,
226210,209894,
226085,209823,
226190,209886,
226084,209846,
226185,209883,
226089,209833,
226187,209888,
226103,209828,
226174,209871,
226088,209819,
226181,209883,
226106,209826,
226202,209881,
226104,209827,
226205,209892,
226128,209840,
226201,209874,
226115,209826,
226192,209872,
226127,209812,
226195,209886,
226121,209820,
226209,209872,
226153,209831,
226208,209871,
226161,209806,
226240,209883,
226159,209819,
226238,209864,
226157,209824,
226239,209886,
226161,209817,
226257,209896,
226178,209806,
226242,209861,
226147,209798,
226256,209857,
226157,209823,
226275,209863,
226180,209818,
226271,209874,
226179,209820,
226274,209862,
226192,209797,
226282,209857,
226195,209811,
226279,209869,
226202,209806,
226264,209870,
226207,209810,
226273,209859,
226204,209800,
226286,209874,
226229,209818,
226317,209860,
226221,209812,
226300,209867,
226236,209805,
226322,209863,
226256,209816,
226347,209863,
226272,209807,
226338,209852,
226244,209794,
226337,209849,
226242,209784,
226335,209840,
226238,209788,
226301,209835,
226229,209766,
226313,209827,
226217,209776,
226277,209831,
226216,209772,
226305,209841,
226240,209759,
226301,209821,
226205,209761,
226272,209817,
226206,209758,
226278,209812,
226207,209759,
226262,209828,
226213,209764,
226292,209821,
226215,209761,
226306,209822,
226229,209745,
226314,209816,
226241,209738,
226305,209805,
226241,209750,
226309,209821,
226236,209758,
226329,209806,
226238,209722,
226311,209821,
226230,209742,
226304,209812,
226221,209735,
226282,209798,
226228,209725,
226280,209807,
226212,209738,
226288,209802,
226197,209728,
226261,209797,
226187,209719,
226234,209795,
226147,209702,
226188,209778,
226110,209675,
226174,209770,
226120,209693,
226183,209759,
226110,209681,
226174,209766,
226090,209670,
226175,209754,
226085,209668,
226138,209744,
226037,209674,
226160,209752,
226075,209662,
226159,209746,
226113,209684,
226195,209766,
226117,209702,
226201,209773,
226147,209695,
226210,209776,
226173,209695,
226223,209772,
226178,209713,
226256,209777,
226190,209716,
226250,209773,
226194,209703,
226274,209781,
226230,209734,
226268,209780,
226213,209733,
226277,209785,
226202,209724,
226280,209764,
226189,209709,
226254,209770,
226174,209703,
226261,209759,
226184,209696,
226242,209746,
226141,209685,
226230,209759,
226162,209693,
226240,209759,
226177,209699,
226237,209752,
226161,209700,
226249,209752,
226168,209700,
226243,209755,
226158,209684,
226244,209735,
226168,209685,
226228,209733,
226156,209684,
226241,209734,
226159,209681,
226263,209737,
226173,209667,
226259,209732,
226180,209670,
226261,209730,
226196,209673,
226278,209731,
226172,209681,
226276,209732,
226175,209676,
226268,209717,
226181,209662,
226256,209735,
226180,209659,
226264,209725,
226170,209666,
226262,209710,
226167,209647,
226251,209720,
226155,209643,
226252,209707,
226163,209644,
226247,209710,
226171,209638,
226253,209695,
226162,209655,
226258,209690,
226165,209625,
226249,209684,
226133,209632,
226249,209685,
226164,209611,
226270,209691,
226164,209611,
226241,209670,
226166,209610,
226229,209673,
226138,209609,
226232,209656,
226160,209616,
226212,209649,
226134,209603,
226218,209650,
226121,209599,
226217,209641,
226123,209595,
226184,209631,
226121,209591,
226186,209634,
226100,209580,
226205,209644,
226119,209576,
226189,209644,
226112,209579,
226182,209619,
226123,209572,
226181,209620,
226110,209556,
226183,209625,
226122,209571,
226173,209602,
226102,209553,
226179,209603,
226113,209559,
226167,209590,
226122,209558,
226174,209593,
226106,209552,
226185,209596,
226096,209542,
226161,209568,
226078,209538,
226149,209571,
226090,209534,
226153,209572,
226078,209528,
226136,209576,
226061,209529,
226154,209580,
226077,209523,
226144,209571,
226100,209520,
226140,209563,
226101,209514,
226150,209563,
226110,209515,
226157,209569,
226112,209532,
226143,209548,
226077,209514,
226148,209537,
226076,209494,
226147,209550,
226084,209507,
226156,209546,
226086,209510,
226168,209550,
226094,209492,
226174,209549,
226102,209503,
226184,209553,
226119,209504,
226189,209536,
226130,209498,
226154,209541,
226103,209485,
226158,209546,
226115,209477,
226172,209542,
226107,209481,
226177,209536,
226129,209484,
226181,209555,
226103,209494,
226182,209544,
226126,209500,
226190,209555,
226119,209492,
226179,209557,
226118,209476,
226181,209523,
226114,209472,
226197,209546,
226148,209481,
226181,209532,
226130,209474,
226185,209532,
226149,209476,
226203,209531,
226144,209460,
226203,209527,
226142,209474,
226196,209518,
226130,209476,
226182,209522,
226133,209464,
226186,209511,
226146,209469,
226197,209519,
226120,209469,
226189,209507,
226152,209443,
226178,209490,
226141,209451,
226179,209493,
226141,209451,
226177,209483,
226137,209454,
226179,209509,
226151,209457,
226216,209496,
226139,209442,
226200,209494,
226155,209446,
226199,209476,
226155,209444,
226188,209497,
226156,209444,
226203,209499,
226169,209458,
226220,209509,
226162,209455,
226214,209482,
226151,209450,
226218,209486,
226163,209448,
226216,209487,
226173,209436,
226210,209488,
226158,209446,
226234,209487,
226170,209430,
226223,209486,
226176,209443,
226243,209475,
226157,209432,
226230,209468,
226165,209434,
226244,209465,
226155,209431,
226240,209471,
226193,209432,
226265,209469,
226176,209437,
226249,209470,
226181,209431,
226252,209465,
226177,209431,
226253,209460,
226176,209415,
226260,209464,
226189,209433,
226267,209460,
226190,209421,
226251,209444,
226180,209414,
226214,209450,
226153,209399,
226230,209447,
226154,209402,
226222,209434,
226168,209411,
226237,209423,
226170,209385,
226201,209419,
226146,209392,
226205,209419,
226149,209374,
226210,209406,
226156,209384,
226201,209415,
226148,209366,
226212,209410,
226161,209394,
226237,209420,
226163,209384,
226208,209416,
226180,209382,
226223,209412,
226180,209364,
226203,209405,
226150,209374,
226211,209395,
226171,209376,
226204,209400,
226172,209364,
226219,209389,
226162,209367,
226193,209375,
226179,209364,
226201,209383,
226172,209359,
226227,209388,
226154,209358,
226209,209372,
226169,209351,
226198,209374,
226159,209346,
226183,209360,
226142,209357,
226196,209364,
226146,209338,
226178,209350,
226140,209337,
226176,209338,
226141,209329,
226178,209341,
226159,209349,
226193,209331,
226147,209348,
226174,209327,
226140,209339,
226179,209346,
226143,209324,
226175,209343,
226148,209333,
226199,209326,
226147,209335,
226188,209331,
226129,209330,
226201,209328,
226157,209337,
226200,209313,
226146,209327,
226212,209344,
226161,209340,
226200,209323,
226160,209346,
226200,209326,
226167,209342,
226197,209303,
226160,209349,
226195,209314,
226156,209341,
226199,209324,
226159,209338,
226194,209311,
226173,209336,
226207,209304,
226186,209337,
226194,209308,
226186,209341,
226212,209308,
226180,209328,
226195,209293,
226191,209323,
226204,209310,
226160,209317,
226181,209297,
226154,209318,
226189,209290,
226169,209309,
226173,209287,
226149,209309,
226186,209278,
226163,209311,
226171,209266,
226149,209315,
226176,209271,
226149,209295,
226166,209263,
226155,209301,
226157,209257,
226152,209289,
226144,209258,
226144,209302,
226159,209283,
226165,209312,
226173,209266,
226153,209311,
226152,209258,
226155,209299,
226124,209266,
226157,209286,
226146,209250,
226164,209293,
226149,209248,
226158,209293,
226147,209260,
226165,209278,
226141,209243,
226160,209288,
226128,209233,
226171,209284,
226113,209240,
226157,209273,
226132,209240,
226168,209273,
226152,209238,
226165,209293,
226139,209228,
226157,209276,
226127,209226,
226180,209273,
226155,209226,
226175,209271,
226139,209214,
226187,209270,
226158,209235,
226191,209265,
226147,209213,
226192,209259,
226164,209218,
226192,209275,
226161,209216,
226184,209256,
226140,209219,
226184,209261,
226147,209208,
226181,209257,
226156,209202,
226177,209233,
226155,209201,
226170,209253,
226140,209218,
226185,209251,
226170,209206,
226200,209249,
226152,209194,
226214,209242,
226169,209198,
226200,209248,
226147,209187,
226179,209236,
226135,209178,
226179,209234,
226142,209184,
226195,209230,
226145,209185,
226198,209236,
226143,209199,
226195,209242,
226162,209199,
226217,209242,
226180,209198,
226240,209233,
226159,209183,
226212,209230,
226162,209186,
226220,209219,
226147,209177,
226210,209219,
226137,209180,
226205,209220,
226136,209180,
226220,209211,
226166,209160,
226203,209223,
226143,209165,
226191,209206,
226144,209164,
226212,209207,
226168,209164,
226228,209227,
226164,209168,
226205,209207,
226160,209140,
226213,209190,
226156,209145,
226242,209221,
226164,209157,
226259,209213,
226193,209160,
226241,209191,
226179,209147,
226254,209219,
226186,209160,
226248,209200,
226170,209129,
226234,209200,
226182,209150,
226255,209195,
226167,209125,
226242,209201,
226184,209155,
226255,209211,
226177,209128,
226225,209198,
226177,209125,
226247,209208,
226178,209117,
226255,209209,
226180,209129,
226245,209209,
226188,209137,
226258,209197,
226181,209114,
226248,209194,
226181,209108,
226234,209178,
226162,209095,
226228,209172,
226168,209105,
226231,209179,
226166,209105,
226247,209185,
226193,209105,
226241,209179,
226192,209124,
226254,209188,
226176,209110,
226260,209192,
226194,209115,
226248,209164,
226187,209111,
226249,209168,
226175,209111,
226238,209181,
226168,209101,
226233,209164,
226165,209076,
226232,209147,
226160,209095,
226246,209149,
226179,209108,
226247,209154,
226167,209084,
226229,209153,
226159,209082,
226223,209137,
226165,209073,
226228,209151,
226158,209084,
226252,209138,
226171,209073,
226253,209144,
226186,209084,
226272,209143,
226186,209082,
226267,209142,
226189,209080,
226263,209135,
226193,209079,
226285,209151,
226213,209084,
226312,209145,
226208,209089,
226286,209127,
226199,209061,
226285,209132,
226182,209070,
226273,209129,
226168,209054,
226275,209130,
226189,209070,
226282,209123,
226194,209052,
226303,209123,
226212,209073,
226297,209125,
226192,209050,
226303,209129,
226193,209059,
226281,209100,
226199,209058,
226297,209125,
226219,209061,
226313,209131,
226212,209058,
226320,209118,
226231,209063,
226315,209119,
226236,209046,
226316,209120,
226210,209063,
226327,209135,
226241,209058,
226315,209119,
226235,209047,
226327,209103,
226229,209064,
226325,209107,
226235,209048,
226322,209098,
226225,209034,
226294,209098,
226219,209034,
226307,209086,
226225,209033,
226304,209084,
226189,209041,
226314,209086,
226227,209030,
226321,209100,
226222,209022,
226300,209081,
226191,209013,
226298,209072,
226210,209017,
226301,209080,
226225,209017,
226322,209091,
226231,209001,
226308,209057,
226238,209004,
226314,209061,
226221,208985,
226288,209067,
226209,209002,
226306,209068,
226221,208999,
226306,209055,
226228,209016,
226296,209057,
226219,208991,
226284,209063,
226225,208976,
226273,209052,
226199,208998,
226297,209070,
226229,208987,
226331,209076,
226248,208988,
226319,209075,
226256,209002,
226329,209077,
226273,209008,
226337,209089,
226266,208986,
226352,209070,
226268,208998,
226325,209058,
226226,208994,
226306,209064,
226237,208979,
226320,209052,
226225,208971,
226293,209045,
226247,208972,
226305,209038,
226233,208978,
226305,209042,
226246,208954,
226306,209038,
226232,208953,
226309,209038,
226244,208954,
226295,209026,
226223,208954,
226300,209034,
226213,208959,
226291,209009,
226238,208963,
226299,209023,
226230,208950,
226296,209011,
226238,208960,
226320,209021,
226230,208954,
226291,209018,
226222,208963,
226287,209011,
226209,208945,
226301,208995,
226199,208950,
226283,209003,
226200,208935,
226279,208995,
226211,208955,
226303,209012,
226221,208945,
226308,208991,
226223,208959,
226314,208996,
226225,208937,
226290,209001,
226214,208924,
226285,208995,
226201,208925,
226286,208993,
226197,208923,
226287,208978,
226199,208921,
226289,208987,
226193,208919,
226299,208981,
226210,208905,
226310,208976,
226217,208931,
226321,208974,
226204,208914,
226306,208974,
226218,208934,
226322,208979,
226215,208921,
226318,208975,
226221,208906,
226303,208970,
226218,208916,
226298,208959,
226212,208915,
226296,208953,
226184,208897,
226284,208954,
226202,208895,
226307,208960,
226220,208905,
226302,208950,
226206,208891,
226281,208947,
226210,208884,
226274,208930,
226207,208896,
226290,208948,
226209,208903,
226281,208936,
226208,208891,
226265,208942,
226201,208891,
226272,208940,
226203,208890,
226294,208928,
226194,208874,
226272,208926,
226203,208865,
226280,208918,
226191,208889,
226260,208928,
226206,208879,
226270,208915,
226202,208878,
226277,208918,
226200,208875,
226262,208926,
226204,208858,
226253,208903,
226203,208860,
226268,208908,
226208,208851,
226257,208896,
226196,208847,
226264,208908,
226186,208846,
226250,208897,
226190,208848,
226253,208893,
226208,208829,
226256,208891,
226187,208822,
226244,208883,
226197,208842,
226264,208885,
226202,208841,
226246,208875,
226207,208843,
226256,208903,
226193,208835,
226268,208900,
226218,208827,
226268,208887,
226197,208834,
226274,208880,
226205,208826,
226286,208904,
226215,208833,
226276,208890,
226232,208840,
226280,208895,
226218,208838,
226277,208882,
226216,208802,
226284,208890,
226219,208839,
226266,208881,
226210,208817,
226260,208882,
226208,208793,
226258,208869,
226208,208806,
226255,208852,
226210,208818,
226268,208859,
226214,208807,
226246,208870,
226215,208791,
226263,208846,
226229,208800,
226269,208862,
226221,208798,
226273,208845,
226221,208797,
226241,208853,
226208,208784,
226276,208829,
226231,208795,
226272,208837,
226214,208794,
226276,208838,
226234,208783,
226248,208832,
226207,208779,
226259,208837,
226207,208784,
226271,208830,
226215,208787,
226270,208820,
226210,208806,
226277,208840,
226220,208791,
226283,208832,
226215,208779,
226273,208830,
226212,208784,
226277,208833,
226206,208772,
226283,208828,
226206,208752,
226271,208822,
226219,208774,
226284,208824,
226224,208783,
226278,208811,
226220,208771,
226286,208805,
226229,208761,
226304,208826,
226228,208764,
226309,208805,
226233,208774,
226306,208812,
226240,208767,
226295,208798,
226246,208762,
226304,208798,
226222,208763,
226290,208802,
226232,208760,
226297,208805,
226235,208754,
226295,208807,
226233,208745,
226293,208801,
226248,208755,
226295,208804,
226223,208751,
226291,208776,
226218,208741,
226293,208781,
226226,208747,
226301,208786,
226239,208745,
226286,208782,
226231,208747,
226283,208782,
226254,208744,
226300,208771,
226257,208746,
226311,208762,
226255,208745,
226294,208765,
226255,208751,
226307,208764,
226259,208739,
226305,208753,
226255,208729,
226294,208752,
226256,208740,
226302,208761,
226256,208732,
226321,208751,
226279,208744,
226320,208756,
226273,208755,
226317,208752,
226248,208728,
226315,208738,
226271,208714,
226320,208733,
226250,208712,
226284,208716,
226254,208713,
226293,208708,
226242,208708,
226309,208708,
226264,208712,
226324,208715,
226266,208728,
226314,208707,
226260,208716,
226323,208702,
226289,208734,
226333,208709,
226278,208710,
226321,208719,
226263,208719,
226307,208716,
226302,208732,
226312,208710,
226287,208734,
226337,208722,
226295,208740,
226334,208734,
226310,208731,
226343,208709,
226314,208732,
226333,208705,
226301,208731,
226353,208699,
226298,208723,
226331,208706,
226280,208730,
226317,208710,
226285,208733,
226329,208702,
226287,208717,
226302,208687,
226287,208716,
226314,208686,
226290,208717,
226328,208684,
226312,208714,
226332,208694,
226320,208737,
226357,208700,
226332,208736,
226338,208692,
226323,208739,
226346,208701,
226332,208753,
226336,208692,
226336,208741,
226342,208683,
226364,208738,
226343,208676,
226351,208737,
226336,208684,
226355,208735,
226338,208682,
226367,208719,
226346,208678,
226360,208723,
226330,208678,
226346,208714,
226318,208672,
226333,208722,
226333,208679,
226341,208709,
226344,208667,
226380,208718,
226352,208644,
226385,208709,
226345,208657,
226378,208701,
226336,208660,
226345,208682,
226325,208662,
226370,208703,
226360,208659,
226386,208698,
226356,208652,
226376,208703,
226345,208656,
226371,208698,
226347,208667,
226366,208691,
226343,208648,
226368,208705,
226329,208644,
226376,208687,
226345,208635,
226383,208686,
226348,208643,
226397,208683,
226337,208642,
226375,208701,
226345,208628,
226395,208687,
226335,208635,
226392,208687,
226354,208640,
226400,208680,
226344,208611,
226391,208678,
226338,208627,
226389,208664,
226338,208621,
226402,208676,
226339,208628,
226397,208672,
226346,208625,
226393,208667,
226340,208641,
226402,208674,
226311,208606,
226379,208667,
226310,208612,
226366,208653,
226324,208593,
226377,208664,
226342,208608,
226410,208655,
226348,208598,
226408,208672,
226354,208610,
226409,208656,
226332,208598,
226397,208645,
226336,208575,
226391,208639,
226324,208573,
226380,208647,
226347,208603,
226401,208653,
226338,208582,
226387,208649,
226320,208574,
226371,208616,
226294,208567,
226367,208644,
226330,208569,
226379,208624,
226335,208564,
226380,208642,
226335,208573,
226397,208648,
226321,208550,
226372,208624,
226325,208549,
226377,208636,
226306,208548,
226349,208615,
226300,208549,
226358,208627,
226306,208544,
226365,208621,
226307,208548,
226382,208616,
226328,208544,
226368,208616,
226292,208544,
226351,208602,
226309,208544,
226358,208615,
226309,208545,
226365,208606,
226296,208549,
226350,208599,
226290,208538,
226347,208602,
226289,208525,
226333,208582,
226281,208514,
226347,208603,
226270,208507,
226336,208581,
226267,208529,
226334,208585,
226267,208514,
226337,208596,
226273,208512,
226340,208597,
226258,208513,
226321,208584,
226262,208509,
226339,208581,
226262,208497,
226332,208563,
226251,208514,
226341,208569,
226249,208497,
226336,208564,
226244,208495,
226323,208557,
226249,208492,
226330,208550,
226223,208488,
226316,208539,
226245,208491,
226330,208546,
226238,208478,
226317,208527,
226244,208483,
226331,208539,
226222,208473,
226330,208545,
226218,208462,
226321,208522,
226232,208471,
226326,208530,
226221,208466,
226315,208539,
226209,208457,
226304,208528,
226217,208442,
226304,208523,
226233,208453,
226316,208506,
226243,208449,
226313,208517,
226255,208458,
226310,208526,
226237,208448,
226313,208514,
226235,208445,
226306,208496,
226207,208435,
226297,208505,
226243,208448,
226329,208495,
226228,208431,
226323,208506,
226253,208439,
226347,208492,
226233,208431,
226311,208496,
226228,208433,
226329,208479,
226246,208421,
226320,208477,
226244,208407,
226321,208477,
226226,208401,
226329,208470,
226255,208403,
226326,208446,
226252,208376,
226306,208435,
226256,208390,
226318,208417,
226247,208359,
226331,208428,
226265,208358,
226337,208434,
226261,208375,
226344,208429,
226278,208380,
226350,208431,
226253,208363,
226335,208426,
226271,208360,
226228,208431,
226228,208431,
226228,208431,
226228,208431,
226261,208384,
226358,208450,
226273,208366,
226358,208453,
226272,208368,
226335,208464,
226284,208368,
226356,208449,
226295,208353,
226352,208439,
226280,208374,
226349,208438,
226268,208365,
226346,208429,
226269,208357,
226307,208435,
226243,208361,
226295,208412,
226237,208342,
226293,208416,
226235,208357,
226307,208402,
226236,208329,
226297,208418,
226243,208338,
226299,208397,
226229,208330,
226292,208402,
226236,208334,
226312,208400,
226239,208326,
226308,208405,
226238,208342,
226310,208414,
226238,208326,
226307,208398,
226230,208334,
226306,208396,
226233,208320,
226309,208420,
226258,208331,
226344,208401,
226247,208335,
226320,208392,
226240,208333,
226323,208382,
226248,208327,
226317,208402,
226239,208335,
226319,208371,
226263,208334,
226332,208393,
226255,208332,
226331,208377,
226266,208339,
226341,208389,
226263,208331,
226344,208391,
226283,208346,
226372,208401,
226306,208334,
226394,208392,
226278,208327,
226378,208379,
226301,208324,
226376,208388,
226284,208326,
226374,208379,
226299,208340,
226384,208391,
226292,208338,
226378,208401,
226323,208337,
226382,208375,
226320,208324,
226406,208384,
226298,208324,
226364,208384,
226306,208315,
226373,208369,
226291,208316,
226369,208365,
226298,208321,
226380,208384,
226305,208320,
226398,208376,
226332,208321,
226395,208376,
226320,208319,
226371,208369,
226319,208324,
226374,208356,
226284,208311,
226365,208353,
226313,208321,
226365,208351,
226287,208308,
226365,208352,
226282,208307,
226360,208345,
226302,208300,
226363,208340,
226291,208299,
226361,208340,
226300,208301,
226365,208353,
226300,208282,
226385,208352,
226311,208281,
226362,208340,
226293,208282,
226371,208351,
226305,208287,
226365,208349,
226288,208281,
226375,208330,
226333,208281,
226392,208346,
226302,208278,
226379,208343,
226325,208274,
226374,208347,
226324,208291,
226375,208332,
226331,208282,
226369,208324,
226318,208259,
226375,208336,
226300,208262,
226359,208339,
226299,208278,
226359,208323,
226307,208266,
226361,208316,
226314,208258,
226362,208328,
226305,208258,
226335,208322,
226303,208252,
226346,208342,
226285,208255,
226342,208304,
226282,208259,
226317,208297,
226284,208249,
226320,208307,
226294,208248,
226353,208281,
226279,208239,
226335,208295,
226288,208243,
226330,208296,
226293,208255,
226335,208284,
226277,208242,
226351,208291,
226282,208237,
226320,208284,
226264,208251,
226320,208279,
226278,208243,
226335,208280,
226267,208244,
226319,208271,
226262,208266,
226314,208273,
226274,208222,
226327,208268,
226262,208236,
226325,208263,
226255,208227,
226333,208272,
226258,208219,
226330,208252,
226251,208210,
226319,208256,
226261,208211,
226309,208248,
226267,208209,
226333,208254,
226261,208211,
226316,208243,
226247,208208,
226309,208237,
226248,208204,
226305,208229,
226217,208181,
226286,208228,
226226,208191,
226306,208231,
226241,208200,
226304,208233,
226242,208182,
226294,208228,
226222,208185,
226296,208206,
226229,208187,
226279,208213,
226238,208164,
226267,208208,
226227,208171,
226272,208207,
226222,208165,
226275,208204,
226218,208184,
226268,208196,
226242,208159,
226282,208210,
226246,208172,
226280,208191,
226244,208181,
226277,208189,
226234,208159,
226282,208184,
226219,208176,
226262,208174,
226232,208169,
226253,208175,
226219,208161,
226273,208155,
226226,208145,
226282,208167,
226210,208154,
226274,208162,
226221,208161,
226249,208141,
226206,208138,
226232,208138,
226196,208140,
226239,208142,
226201,208117,
226234,208132,
226193,208120,
226241,208115,
226193,208122,
226236,208105,
226196,208136,
226236,208113,
226212,208134,
226243,208111,
226197,208128,
226237,208098,
226192,208118,
226244,208095,
226199,208119,
226234,208107,
226204,208123,
226242,208092,
226204,208103,
226240,208098,
226200,208105,
226237,208080,
226209,208113,
226256,208088,
226224,208127,
226234,208098,
226222,208103,
226236,208069,
226218,208107,
226246,208055,
226225,208119,
226251,208071,
226229,208106,
226246,208067,
226221,208109,
226235,208069,
226231,208094,
226254,208066,
226240,208113,
226244,208085,
226250,208102,
226253,208075,
226261,208120,
226262,208076,
226274,208113,
226256,208079,
226267,208105,
226265,208066,
226250,208117,
226238,208067,
226271,208093,
226223,208050,
226254,208101,
226255,208058,
226279,208099,
226251,208028,
226279,208098,
226270,208057,
226282,208082,
226269,208050,
226290,208085,
226250,208041,
226273,208103,
226248,208021,
226291,208073,
226244,208044,
226289,208078,
226272,208042,
226295,208081,
226262,208042,
226287,208075,
226253,208033,
226286,208069,
226247,208025,
226283,208066,
226240,208022,
226301,208058,
226242,208014,
226295,208071,
226253,208029,
226281,208075,
226251,208018,
226294,208059,
226244,208022,
226314,208054,
226242,208016,
226302,208049,
226263,208014,
226314,208058,
226255,208013,
226305,208066,
226254,208009,
226308,208047,
226253,207999,
226317,208058,
226257,208000,
226308,208053,
226272,208017,
226314,208053,
226261,207992,
226317,208060,
226268,207998,
226318,208044,
226227,207992,
226321,208041,
226256,207997,
226323,208053,
226262,207989,
226324,208057,
226268,207992,
226338,208044,
226255,207995,
226313,208052,
226271,207979,
226322,208048,
226261,207969,
226323,208043,
226256,207970,
226303,208023,
226231,207964,
226323,208034,
226261,207978,
226325,208033,
226263,207963,
226307,208014,
226262,207953,
226311,208036,
226280,207969,
226318,208054,
226264,207962,
226335,208039,
226271,207978,
226344,208051,
226268,207968,
226322,208040,
226283,207964,
226332,208045,
226275,207969,
226330,208029,
226309,207969,
226361,208053,
226322,207963,
226361,208039,
226306,207966,
226373,208043,
226303,207957,
226348,208036,
226299,207945,
226362,208013,
226278,207933,
226353,208022,
226278,207949,
226364,208032,
226270,207954,
226360,208023,
226293,207952,
226344,208022,
226277,207958,
226362,208026,
226280,207954,
226355,208030,
226261,207950,
226349,208003,
226280,207934,
226347,208018,
226281,207952,
226380,208010,
226272,207949,
226366,208000,
226275,207946,
226367,207997,
226285,207935,
226380,208001,
226289,207949,
226383,208003,
226278,207927,
226374,207995,
226284,207935,
226355,207994,
226294,207926,
226386,207998,
226282,207927,
226382,207974,
226296,207921,
226382,207976,
226268,207926,
226385,207987,
226278,207914,
226280,207954,
226280,207954,
226280,207954,
226245,207903,
226375,207983,
226319,207920,
226381,207986,
226286,207901,
226361,207958,
226292,207900,
226373,207971,
226274,207907,
226349,207975,
226268,207914,
226376,207966,
226275,207892,
226386,207967,
226297,207898,
226373,207949,
226283,207899,
226358,207971,
226275,207899,
226376,207948,
226262,207899,
226360,207957,
226275,207901,
226361,207942,
226280,207890,
226369,207948,
226293,207880,
226363,207965,
226281,207890,
226365,207956,
226286,207892,
226365,207947,
226296,207892,
226372,207949,
226307,207875,
226385,207965,
226293,207891,
226374,207949,
226304,207889,
226364,207960,
226310,207884,
226391,207973,
226305,207896,
226392,207946,
226284,207876,
226375,207946,
226303,207876,
226381,207950,
226287,207869,
226387,207949,
226315,207875,
226373,207953,
226309,207871,
226374,207940,
226312,207861,
226377,207945,
226305,207860,
226387,207945,
226325,207856,
226367,207939,
226304,207841,
226380,207939,
226303,207849,
226377,207937,
226294,207846,
226372,207932,
226305,207851,
226352,207929,
226287,207853,
226346,207903,
226290,207841,
226367,207911,
226294,207850,
226349,207907,
226298,207852,
226354,207913,
226294,207853,
226365,207908,
226274,207862,
226362,207888,
226269,207834,
226352,207905,
226279,207833,
226370,207891,
226276,207843,
226366,207913,
226303,207834,
226360,207883,
226285,207847,
226362,207898,
226273,207836,
226351,207883,
226237,207824,
226339,207885,
226263,207819,
226352,207867,
226251,207819,
226361,207857,
226272,207823,
226357,207862,
226252,207807,
226348,207872,
226248,207797,
226365,207868,
226255,207804,
226356,207859,
226248,207793,
226340,207830,
226247,207786,
226339,207841,
226235,207784,
226320,207830,
226228,207777,
226303,207845,
226234,207779,
226312,207836,
226223,207786,
226307,207829,
226228,207784,
226288,207833,
226203,207778,
226306,207840,
226233,207770,
226295,207827,
226222,207762,
226302,207810,
226231,207775,
226300,207801,
226230,207775,
226314,207817,
226212,207766,
226299,207806,
226231,207757,
226291,207806,
226244,207770,
226306,207800,
226216,207762,
226290,207797,
226223,207760,
226305,207791,
226235,207741,
226295,207806,
226237,207746,
226306,207798,
226235,207741,
226308,207792,
226245,207734,
226302,207782,
226223,207745,
226303,207785,
226226,207724,
226302,207787,
226252,207722,
226288,207772,
226212,207710,
226296,207777,
226244,207734,
226303,207779,
226245,207720,
226315,207786,
226254,207716,
226302,207773,
226264,207730,
226321,207783,
226245,207728,
226296,207775,
226246,207714,
226304,207763,
226225,207709,
226300,207776,
226242,207718,
226310,207765,
226239,207695,
226304,207757,
226233,207708,
226292,207763,
226239,207703,
226310,207745,
226258,207704,
226298,207744,
226231,207692,
226296,207753,
226248,207684,
226301,207726,
226224,207691,
226302,207737,
226238,207682,
226295,207734,
226240,207687,
226278,207719,
226252,207670,
226292,207729,
226234,207680,
226286,207737,
226229,207686,
226300,207730,
226227,207664,
226271,207716,
226242,207668,
226292,207698,
226217,207653,
226278,207702,
226231,207666,
226276,207712,
226219,207668,
226260,207703,
226206,207664,
226290,207688,
226216,207646,
226297,207686,
226226,207642,
226293,207690,
226200,207647,
226278,207693,
226171,207642,
226285,207682,
226202,207608,
226267,207679,
226198,207616,
226277,207672,
226191,207633,
226276,207669,
226195,207635,
226276,207682,
226205,207612,
226273,207675,
226203,207624,
226265,207652,
226208,207621,
226256,207652,
226190,207616,
226255,207661,
226199,207616,
226248,207654,
226204,207614,
226245,207641,
226204,207614,
226260,207635,
226207,207609,
226248,207651,
226210,207593,
226248,207640,
226213,207601,
226277,207645,
226211,207621,
226290,207624,
226219,207597,
226268,207638,
226222,207615,
226269,207611,
226228,207607,
226274,207612,
226218,207600,
226254,207606,
226220,207613,
226265,207612,
226229,207582,
226290,207613,
226243,207601,
226286,207598,
226233,207603,
226269,207603,
226225,207601,
226267,207595,
226214,207606,
226261,207592,
226213,207581,
226259,207599,
226216,207583,
226259,207592,
226206,207592,
226266,207586,
226221,207596,
226263,207573,
226219,207603,
226266,207566,
226226,207602,
226260,207568,
226212,207597,
226277,207570,
226238,207585,
226258,207563,
226213,207599,
226260,207548,
226215,207593,
226248,207552,
226216,207561,
226259,207552,
226245,207591,
226248,207549,
226227,207573,
226245,207558,
226224,207569,
226248,207544,
226236,207565,
226274,207553,
226215,207559,
226238,207542,
226225,207569,
226238,207536,
226233,207576,
226233,207537,
226234,207569,
226234,207540,
226236,207571,
226251,207538,
226219,207561,
226222,207533,
226215,207556,
226210,207523,
226230,207570,
226232,207528,
226235,207559,
226226,207508,
226210,207557,
226219,207494,
226234,207544,
226204,207506,
226227,207543,
226225,207520,
226233,207547,
226232,207504,
226234,207531,
226212,207520,
226239,207542,
226216,207492,
226230,207527,
226215,207508,
226240,207541,
226214,207502,
226250,207540,
226201,207512,
226251,207542,
226226,207504,
226264,207539,
226218,207491,
226245,207535,
226211,207492,
226260,207540,
226217,207500,
226263,207543,
226212,207494,
226250,207549,
226230,207498,
226272,207532,
226231,207498,
226265,207540,
226222,207497,
226268,207549,
226218,207489,
226265,207555,
226255,207498,
226264,207549,
226237,207488,
226291,207549,
226234,207485,
226282,207551,
226232,207508,
226304,207543,
226257,207501,
226306,207537,
226256,207507,
226320,207550,
226258,207503,
226306,207546,
226242,207502,
226322,207548,
226251,207505,
226306,207545,
226266,207500,
226326,207569,
226299,207522,
226325,207562,
226285,207507,
226355,207575,
226283,207520,
226353,207582,
226316,207544,
226381,207602,
226340,207539,
226377,207628,
226360,207564,
226416,207631,
226382,207585,
226432,207661,
226390,207614,
226472,207678,
226428,207651,
226492,207731,
226493,207677,
226545,207769,
226508,207696,
226586,207783,
226542,207735,
226617,207792,
226625,207762,
226759,207901,
226811,207884,
227013,208032,
227030,208012,
227143,208091,
227075,208016,
227139,208097,
227049,208012,
227083,208059,
227012,207974,
227050,208044,
227009,207952,
227071,208031,
227010,207967,
227100,208017,
227050,207969,
227125,208027,
227065,207972,
227091,208017,
227047,207956,
227050,207972,
226911,207874,
226887,207888,
226725,207772,
226698,207804,
226588,207700,
226609,207752,
226490,207671,
226553,207727,
226428,207631,
226457,207687,
226318,207565,
226333,207602,
226180,207478,
226166,207507,
226004,207407,
225965,207424,
225796,207306,
225795,207358,
225634,207256,
225632,207291,
225531,207212,
225567,207256,
225443,207178,
225519,207229,
225407,207168,
225515,207234,
225389,207166,
225463,207203,
225207,207076,
224862,206908,
224001,206527,
223051,206118,
221970,205693,
221395,205463,
220814,205190,
220540,205121,
220204,204992,
220108,204974,
219905,204885,
219939,204914,
219812,204851,
219909,204911,
219843,204882,
219952,204936,
219857,204882,
219945,204931,
219826,204872,
219898,204921,
219788,204848,
219846,204892,
219724,204816,
219789,204876,
219703,204824,
219816,204894,
219764,204827,
219857,204913,
219774,204858,
219818,204875,
219682,204808,
219728,204829,
219616,204769,
219648,204796,
219539,204731,
219598,204774,
219505,204711,
219577,204759,
219488,204714,
219596,204787,
219540,204740,
219630,204776,
219568,204730,
219674,204791,
219593,204724,
219692,204779,
219605,204722,
219696,204772,
219656,204716,
219738,204791,
219675,204740,
219771,204799,
219704,204747,
219811,204811,
219753,204768,
219851,204823,
219788,204767,
219866,204837,
219816,204789,
219924,204847,
219863,204804,
219962,204873,
219884,204807,
219950,204847,
219858,204778,
219955,204850,
219875,204775,
219938,204867,
219887,204782,
219965,204853,
219917,204790,
220010,204868,
219975,204821,
220072,204898,
220032,204842,
220145,204923,
220101,204866,
220221,204929,
220142,204876,
220248,204956,
220198,204900,
220306,204970,
220272,204924,
220341,204975,
220324,204957,
220427,205017,
220403,204983,
220510,205056,
220499,205032,
220618,205088,
220638,205090,
220757,205146,
220739,205152,
220883,205194,
220855,205179,
220965,205234,
220887,205205,
220971,205213,
220784,205124,
220591,205045,
220065,204811,
219615,204608,
219081,204364,
218741,204227,
218312,204033,
218098,203974,
217776,203790,
217644,203776,
217426,203658,
217419,203664,
217268,203601,
217311,203624,
217188,203577,
217310,203642,
217225,203596,
217325,203638,
217220,203607,
217316,203611,
217189,203568,
217237,203580,
217077,203507,
217152,203528,
217031,203496,
217119,203533,
217036,203494,
217127,203536,
217032,203489,
217097,203509,
216973,203440,
217016,203466,
216894,203403,
216929,203430,
216841,203359,
216882,203399,
216775,203370,
216841,203393,
216778,203333,
216847,203380,
216766,203343,
216867,203373,
216799,203341,
216895,203385,
216849,203364,
216976,203405,
216954,203421,
217067,203467,
217069,203462,
217163,203500,
217110,203458,
217182,203503,
217135,203475,
217221,203517,
217180,203496,
217276,203524,
217260,203529,
217339,203573,
217321,203544,
217413,203586,
217376,203559,
217464,203594,
217389,203577,
217461,203587,
217387,203548,
217467,203589,
217392,203564,
217483,203582,
217436,203556,
217530,203610,
217498,203593,
217598,203635,
217561,203611,
217661,203645,
217637,203640,
217754,203693,
217730,203664,
217851,203727,
217823,203717,
217911,203771,
217896,203720,
218008,203790,
218019,203776,
218152,203846,
218153,203825,
218261,203906,
218299,203884,
218413,203955,
218404,203920,
218521,203982,
218495,203951,
218594,204007,
218558,203972,
218648,204017,
218627,204005,
218746,204052,
218738,204030,
218841,204096,
218845,204064,
218947,204125,
218976,204135,
219054,204183,
219074,204157,
219153,204229,
219109,204155,
219031,204114,
218633,203931,
218172,203728,
217599,203465,
217191,203293,
216771,203120,
216493,203000,
216152,202859,
215990,202787,
215764,202703,
215699,202688,
215572,202629,
215586,202646,
215528,202640,
215592,202659,
215538,202628,
215592,202664,
215531,202626,
215557,202619,
215442,202574,
215428,202573,
215314,202505,
215318,202501,
215231,202453,
215283,202485,
215224,202442,
215321,202501,
215265,202465,
215370,202518,
215300,202463,
215364,202485,
215265,202446,
215289,202480,
215189,202414,
215259,202408,
215135,202390,
215201,202401,
215130,202359,
215204,202395,
215128,202361,
215200,202375,
215139,202341,
215239,202403,
215194,202362,
215267,202409,
215222,202371,
215295,202410,
215248,202377,
215305,202385,
215288,202383,
215356,202416,
215319,202382,
215400,202423,
215341,202393,
215395,202418,
215331,202374,
215381,202372,
215312,202347,
215352,202367,
215314,202327,
215365,202369,
215286,202331,
215345,202330,
215285,202303,
215331,202322,
215268,202283,
215298,202300,
215250,202293,
215295,202287,
215260,202267,
215301,202282,
215275,202275,
215315,202290,
215323,202280,
215359,202283,
215319,202285,
215353,202273,
215321,202259,
215340,202243,
215310,202244,
215354,202243,
215304,202243,
215356,202231,
215310,202227,
215355,202216,
215283,202215,
215298,202191,
215231,202167,
215250,202148,
215190,202166,
215238,202126,
215180,202148,
215214,202118,
215175,202137,
215224,202127,
215184,202140,
215216,202118,
215173,202109,
215211,202091,
215138,202099,
215157,202060,
215094,202077,
215121,202050,
215078,202071,
215131,202043,
215096,202073,
215111,202041,
215052,202041,
215039,202001,
214958,201993,
214878,201911,
214681,201867,
214408,201711,
213998,201550,
213574,201326,
213024,201128,
212517,200901,
211997,200716,
211491,200458,
211005,200319,
210618,200125,
210202,200010,
209855,199842,
209573,199764,
209365,199649,
209169,199556,
208986,199469,
208797,199374,
208579,199233,
208321,199127,
208071,198963,
207808,198858,
207576,198709,
207343,198636,
207117,198468,
206948,198444,
206738,198297,
206632,198234,
206440,198112,
206271,198079,
206109,197979,
205949,197931,
205772,197800,
205614,197783,
205407,197652,
205297,197637,
205077,197474,
204927,197429,
204715,197295,
204561,197247,
204316,197126,
204173,197077,
203974,196955,
203896,196973,
203735,196891,
203688,196891,
203530,196800,
203505,196819,
203374,196723,
203314,196719,
203151,196623,
203058,196584,
202845,196478,
202756,196448,
202564,196329,
202495,196320,
202329,196212,
202267,196222,
202125,196147,
202110,196194,
201960,196130,
201914,196149,
201746,196076,
201720,196084,
201605,196042,
201603,196056,
201480,196008,
201470,196039,
201346,195990,
201361,196034,
201239,195968,
201257,196008,
201141,195949,
201186,195994,
201096,195953,
201180,196035,
201138,196026,
201246,196106,
201218,196079,
201379,196195,
201342,196155,
201478,196248,
201497,196271,
201676,196371,
201688,196374,
201880,196489,
201884,196468,
202063,196578,
202064,196562,
202216,196671,
202178,196634,
202308,196746,
202310,196739,
202483,196846,
202502,196843,
202691,196964,
202711,196947,
202886,197086,
202889,197078,
203045,197175,
203059,197147,
203191,197241,
203152,197197,
203288,197303,
203212,197231,
203226,197292,
202996,197141,
202818,197109,
202422,196906,
202102,196830,
201580,196579,
201200,196478,
200695,196243,
200400,196170,
199998,195984,
199844,195976,
199613,195860,
199576,195900,
199449,195816,
199497,195898,
199414,195821,
199495,195918,
199395,195859,
199444,195925,
199332,195852,
199342,195915,
199185,195797,
199172,195860,
199035,195760,
199088,195828,
199022,195788,
199109,195897,
199090,195847,
199202,195957,
199147,195913,
199241,195993,
199164,195937,
199243,195999,
199134,195943,
199211,196051,
199132,195967,
199228,196061,
199155,196007,
199274,196113,
199269,196077,
199401,196176,
199402,196157,
199560,196294,
199547,196244,
199698,196345,
199669,196294,
199843,196423,
199794,196375,
199950,196481,
199904,196458,
200066,196571,
200035,196540,
200202,196652,
200158,196610,
200334,196734,
200287,196703,
200466,196794,
200413,196762,
200573,196874,
200545,196830,
200703,196923,
200638,196893,
200795,197003,
200749,196956,
200932,197053,
200846,197024,
201021,197112,
200996,197089,
201154,197178,
201113,197166,
201293,197256,
201242,197245,
201461,197355,
201414,197327,
201589,197418,
201559,197404,
201766,197500,
201719,197480,
201867,197581,
201829,197532,
202013,197654,
201971,197610,
202136,197711,
202109,197696,
202275,197792,
202235,197764,
202395,197842,
202354,197819,
202521,197927,
202502,197890,
202667,197997,
202640,197978,
202834,198075,
202815,198067,
203008,198176,
202959,198127,
203103,198209,
203055,198187,
203210,198276,
203160,198240,
203284,198300,
203231,198255,
203415,198360,
203366,198333,
203492,198401,
203323,198296,
203280,198309,
202924,198137,
202697,198057,
202201,197832,
201871,197713,
201364,197497,
201092,197408,
200666,197208,
200489,197171,
200203,197039,
200162,197081,
199990,196989,
200027,197045,
199898,196983,
199994,197034,
199885,196981,
199974,197066,
199893,197034,
199963,197103,
199864,197042,
199931,197117,
199822,197066,
199909,197146,
199850,197089,
199979,197189,
199931,197128,
200069,197242,
200014,197186,
200117,197278,
200052,197232,
200134,197300,
200055,197238,
200141,197329,
200081,197274,
200179,197348,
200108,197297,
200223,197380,
200144,197316,
200286,197409,
200194,197368,
200333,197472,
200305,197409,
200431,197514,
200388,197444,
200525,197552,
200489,197508,
200651,197618,
200616,197588,
200761,197679,
200746,197638,
200870,197723,
200833,197687,
200968,197789,
200973,197754,
201125,197863,
201092,197826,
201248,197930,
201245,197897,
201392,197990,
201365,197986,
201506,198063,
201486,198027,
201584,198102,
201543,198072,
201694,198125,
201623,198112,
201763,198188,
201731,198152,
201875,198227,
201836,198218,
201981,198299,
201958,198267,
202110,198355,
202063,198356,
202238,198422,
202215,198405,
202360,198476,
202326,198462,
202471,198546,
202451,198539,
202626,198610,
202584,198592,
202738,198660,
202705,198633,
202881,198732,
202856,198723,
203041,198822,
203015,198808,
203199,198888,
203156,198884,
203343,198945,
203289,198934,
203467,199009,
203402,198980,
203537,199037,
203479,199013,
203663,199084,
203617,199081,
203793,199188,
203754,199151,
203944,199244,
203909,199243,
204086,199312,
204043,199289,
204183,199357,
204126,199333,
204249,199383,
204117,199312,
204110,199308,
203830,199167,
203649,199125,
203234,198930,
202965,198824,
202491,198634,
202180,198512,
201740,198335,
201521,198270,
201207,198141,
201139,198139,
200941,198046,
200990,198100,
200899,198067,
200995,198151,
200935,198111,
201034,198183,
200992,198157,
201055,198235,
200975,198185,
200995,198216,
200901,198173,
200929,198212,
200865,198185,
200955,198241,
200933,198204,
201046,198295,
201021,198274,
201104,198325,
201067,198309,
201163,198357,
201091,198325,
201144,198360,
201087,198332,
201149,198382,
201099,198348,
201175,198400,
201150,198366,
201266,198443,
201227,198424,
201347,198504,
201350,198475,
201471,198542,
201453,198526,
201554,198600,
201564,198591,
201687,198647,
201674,198626,
201806,198700,
201772,198685,
201930,198743,
201928,198733,
202041,198819,
202029,198783,
202167,198874,
202128,198825,
202262,198911,
202251,198900,
202377,198974,
202373,198945,
202478,199008,
202464,198991,
202568,199070,
202561,199055,
202678,199119,
202653,199089,
202777,199162,
202752,199126,
202865,199218,
202869,199178,
203002,199264,
202988,199232,
203088,199325,
203098,199292,
203219,199377,
203220,199362,
203347,199419,
203362,199430,
203475,199516,
203477,199499,
203597,199574,
203564,199541,
203667,199600,
203648,199565,
203724,199632,
203749,199635,
203856,199686,
203867,199696,
203987,199761,
204018,199767,
204150,199850,
204146,199855,
204271,199903,
204247,199892,
204334,199947,
204309,199932,
204435,199988,
204430,199992,
204560,200052,
204555,200045,
204704,200130,
204695,200137,
204795,200191,
204700,200121,
204663,200089,
204385,199977,
204201,199905,
203827,199727,
203541,199611,
203123,199439,
202882,199341,
202484,199212,
202308,199143,
202034,199036,
201963,199001,
201771,198934,
201775,198975,
201685,198931,
201758,198972,
201697,198963,
201807,199014,
201763,198994,
201862,199065,
201800,199043,
201883,199084,
201790,199058,
201863,199087,
201772,199054,
201881,199115,
201846,199116,
201940,199160,
201879,199128,
201946,199154,
201876,199123,
201889,199137,
201814,199108,
201869,199146,
201793,199105,
201874,199146,
201852,199129,
201928,199203,
201922,199212,
202010,199237,
201980,199222,
202081,199270,
202043,199265,
202120,199299,
202101,199288,
202212,199333,
202209,199326,
202324,199383,
202332,199402,
202464,199454,
202490,199470,
202603,199515,
202638,199534,
202716,199558,
202715,199554,
202781,199581,
202762,199578,
202833,199602,
202790,199586,
202884,199602,
202886,199621,
202988,199657,
202988,199683,
203100,199726,
203102,199736,
203202,199747,
203195,199779,
203302,199797,
203301,199834,
203409,199858,
203384,199880,
203468,199873,
203447,199907,
203541,199917,
203539,199955,
203635,199971,
203653,199990,
203757,200011,
203777,200045,
203888,200077,
203893,200114,
204004,200128,
203996,200147,
204089,200160,
204067,200188,
204156,200191,
204160,200238,
204231,200210,
204221,200251,
204307,200245,
204297,200294,
204423,200301,
204410,200330,
204516,200332,
204503,200397,
204602,200391,
204593,200415,
204597,200382,
204479,200353,
204342,200244,
204042,200157,
203768,199997,
203380,199898,
203074,199709,
202665,199587,
202394,199444,
202113,199370,
201976,199293,
201813,199297,
201771,199218,
201682,199233,
201692,199200,
201653,199243,
201680,199218,
201644,199266,
201664,199216,
201638,199259,
201627,199240,
201591,199264,
201582,199208,
201530,199233,
201541,199212,
201559,199268,
201589,199245,
201608,199281,
201597,199237,
201628,199296,
201640,199272,
201652,199330,
201647,199273,
201680,199318,
201678,199280,
201698,199334,
201704,199327,
201725,199363,
201747,199330,
201771,199384,
201778,199377,
201861,199426,
201896,199435,
201969,199492,
202000,199474,
202092,199549,
202123,199545,
202225,199611,
202246,199591,
202332,199654,
202316,199635,
202421,199686,
202411,199657,
202505,199716,
202498,199690,
202584,199744,
202571,199733,
202663,199791,
202656,199784,
202765,199840,
202766,199821,
202861,199884,
202872,199890,
202958,199933,
202943,199908,
203032,199975,
203030,199952,
203128,200018,
203111,199970,
203213,200041,
203209,200022,
203285,200077,
203289,200074,
203392,200138,
203393,200109,
203507,200164,
203522,200165,
203627,200223,
203629,200235,
203753,200312,
203756,200277,
203871,200352,
203883,200337,
203993,200415,
203991,200389,
204101,200452,
204092,200416,
204204,200502,
204201,200480,
204317,200554,
204316,200534,
204414,200580,
204400,200558,
204540,200635,
204536,200650,
204674,200713,
204641,200689,
204675,200698,
204496,200593,
204358,200565,
204032,200404,
203767,200295,
203338,200085,
203022,199983,
202604,199787,
202353,199723,
202023,199561,
201885,199531,
201681,199426,
201651,199458,
201569,199402,
201608,199464,
201542,199408,
201604,199464,
201524,199423,
201579,199474,
201489,199440,
201533,199490,
201449,199414,
201467,199459,
201362,199410,
201455,199464,
201396,199420,
201495,199508,
201473,199462,
201593,199554,
201557,199516,
201647,199599,
201594,199533,
201671,199604,
201591,199531,
201660,199610,
201608,199549,
201646,199616,
201603,199553,
201676,199641,
201631,199582,
201746,199680,
201727,199637,
201838,199737,
201833,199687,
201973,199791,
201952,199752,
202084,199859,
202088,199811,
202238,199928,
202232,199895,
202366,200000,
202373,199961,
202501,200071,
202488,200001,
202596,200096,
202575,200031,
202708,200140,
202636,200064,
202738,200147,
202674,200098,
202740,200156,
202673,200082,
202748,200152,
202690,200080,
202806,200159,
202748,200094,
202861,200186,
202855,200155,
202959,200237,
202934,200193,
203014,200283,
202979,200236,
203072,200289,
203023,200253,
203142,200326,
203137,200302,
203238,200382,
203220,200344,
203306,200431,
203278,200386,
203382,200452,
203340,200404,
203446,200485,
203391,200433,
203508,200515,
203441,200451,
203529,200536,
203467,200448,
203540,200534,
203455,200467,
203572,200559,
203506,200493,
203624,200578,
203565,200523,
203708,200616,
203632,200558,
203712,200608,
203547,200503,
203490,200503,
203167,200334,
202948,200272,
202520,200052,
202257,199951,
201826,199765,
201604,199695,
201272,199550,
201187,199541,
200944,199444,
200974,199480,
200824,199424,
200900,199461,
200778,199404,
200867,199465,
200753,199408,
200845,199471,
200710,199401,
200781,199450,
200635,199374,
200696,199428,
200551,199348,
200584,199380,
200473,199324,
200609,199418,
200505,199360,
200609,199432,
200527,199377,
200638,199472,
200543,199403,
200619,199477,
200474,199380,
200559,199447,
200418,199380,
200496,199421,
200349,199344,
200385,199394,
200266,199322,
200359,199415,
200269,199326,
200372,199412,
200318,199388,
200445,199469,
200398,199425,
200579,199515,
200552,199498,
200730,199592,
200709,199565,
200891,199666,
200874,199625,
201026,199728,
200987,199690,
201133,199774,
201063,199735,
201216,199831,
201141,199772,
201312,199846,
201246,199823,
201436,199903,
201399,199875,
201565,199973,
201528,199946,
201707,200041,
201679,200016,
201850,200108,
201803,200067,
201977,200155,
201912,200117,
202060,200202,
202019,200160,
202202,200266,
202183,200233,
202352,200324,
202318,200298,
202505,200408,
202440,200344,
202606,200448,
202541,200368,
202656,200483,
202594,200415,
202725,200498,
202660,200430,
202811,200530,
202756,200498,
202929,200586,
202904,200549,
203086,200668,
203054,200640,
203230,200728,
203211,200690,
203385,200815,
203341,200742,
203467,200828,
203321,200734,
203273,200747,
202976,200557,
202786,200512,
202345,200271,
202075,200191,
201622,199964,
201393,199924,
201070,199730,
200977,199767,
200752,199640,
200766,199696,
200655,199614,
200708,199707,
200609,199631,
200715,199711,
200632,199639,
200730,199722,
200639,199645,
200718,199744,
200610,199650,
200703,199726,
200592,199651,
200675,199734,
200594,199686,
200740,199784,
200671,199729,
200827,199819,
200775,199760,
200884,199859,
200797,199784,
200891,199840,
200785,199793,
200882,199841,
200779,199791,
200878,199852,
200808,199810,
200903,199888,
200832,199825,
200931,199901,
200874,199858,
201034,199973,
201015,199931,
201142,200000,
201133,199997,
201307,200083,
201258,200054,
201430,200155,
201391,200119,
201528,200209,
201514,200199,
201637,200257,
201597,200233,
201731,200285,
201669,200265,
201787,200322,
201676,200290,
201781,200350,
201687,200291,
201793,200352,
201672,200280,
201767,200340,
201663,200305,
201784,200351,
201698,200312,
201839,200378,
201777,200333,
201924,200405,
201861,200376,
202010,200442,
201933,200407,
202080,200480,
202017,200466,
202191,200517,
202124,200510,
202317,200595,
202277,200570,
202466,200671,
202411,200630,
202617,200738,
202536,200684,
202720,200771,
202628,200739,
202818,200811,
202738,200776,
202912,200839,
202852,200831,
203020,200875,
202962,200869,
203139,200947,
203079,200921,
203267,200995,
203198,200968,
203372,201051,
203330,201032,
203507,201109,
203468,201072,
203633,201181,
203589,201126,
203651,201153,
203461,201057,
203368,201009,
202989,200825,
202764,200745,
202331,200545,
202082,200448,
201696,200268,
201524,200206,
201226,200085,
201197,200089,
201051,200024,
201131,200086,
201049,200051,
201172,200128,
201099,200086,
201223,200164,
201146,200127,
201234,200164,
201127,200106,
201180,200128,
201060,200083,
201121,200141,
201048,200092,
201203,200167,
201178,200167,
201351,200259,
201381,200258,
201537,200340,
201534,200335,
201688,200398,
201628,200371,
201753,200433,
201712,200413,
201810,200459,
201778,200438,
201894,200508,
201866,200486,
201988,200568,
201954,200534,
202095,200623,
202061,200572,
202192,200664,
202172,200639,
202316,200721,
202311,200696,
202459,200795,
202460,200779,
202589,200842,
202601,200854,
202739,200918,
202715,200911,
202831,200967,
202776,200923,
202911,201004,
202901,200962,
203019,201070,
203014,201036,
203168,201119,
203154,201109,
203287,201180,
203278,201166,
203397,201246,
203380,201196,
203499,201282,
203450,201227,
203574,201320,
203543,201265,
203671,201373,
203640,201314,
203761,201399,
203773,201388,
203895,201463,
203875,201424,
204000,201523,
204016,201502,
204126,201588,
204106,201544,
204216,201619,
204193,201582,
204313,201667,
204309,201607,
204379,201679,
204358,201628,
204435,201695,
204414,201673,
204516,201731,
204514,201714,
204634,201790,
204638,201779,
204750,201843,
204738,201813,
204824,201879,
204812,201846,
204904,201929,
204882,201884,
204996,201941,
204982,201921,
205091,201991,
205092,201979,
205207,202042,
205203,202023,
205259,202058,
205134,201972,
205045,201919,
204749,201775,
204513,201679,
204103,201483,
203784,201350,
203358,201170,
203118,201065,
202783,200943,
202701,200904,
202514,200809,
202524,200828,
202418,200811,
202484,200828,
202407,200804,
202501,200857,
202435,200815,
202498,200849,
202411,200813,
202454,200821,
202362,200760,
202411,200809,
202339,200769,
202458,200818,
202409,200806,
202544,200863,
202492,200857,
202625,200914,
202598,200898,
202722,200961,
202659,200916,
202759,200973,
202675,200947,
202776,200984,
202697,200950,
202791,200991,
202719,200963,
202830,200999,
202745,200988,
202873,201029,
202829,201004,
202960,201067,
202912,201059,
203060,201110,
203035,201115,
203176,201164,
203139,201131,
203286,201216,
203272,201220,
203406,201264,
203376,201269,
203491,201313,
203458,201294,
203589,201350,
203554,201327,
203695,201391,
203662,201381,
203767,201428,
203745,201405,
203880,201467,
203867,201471,
203988,201518,
203955,201504,
204060,201562,
204044,201538,
204141,201589,
204146,201579,
204243,201628,
204223,201618,
204332,201667,
204325,201679,
204439,201707,
204442,201723,
204548,201749,
204553,201737,
204683,201805,
204675,201816,
204778,201859,
204783,201849,
204888,201923,
204883,201908,
204995,201939,
204989,201970,
205108,201989,
205107,201995,
205217,202047,
205232,202027,
205327,202079,
205338,202086,
205445,202117,
205438,202119,
205545,202169,
205578,202187,
205661,202213,
205642,202217,
205711,202226,
205671,202202,
205618,202147,
205398,202049,
205194,201926,
204827,201793,
204567,201641,
204173,201493,
203903,201353,
203569,201247,
203410,201154,
203176,201086,
203135,201028,
203013,201008,
203024,200986,
202946,200998,
202997,200993,
202974,201015,
203036,200999,
202983,201017,
203017,200998,
202941,200998,
202972,200971,
202864,200988,
202895,200957,
202860,200955,
202947,200938,
202972,201037,
203100,201025,
203140,201076,
203253,201096,
203280,201172,
203387,201174,
203394,201220,
203476,201215,
203483,201236,
203547,201227,
203515,201287,
203593,201270,
203579,201291,
203618,201267,
203603,201303,
203675,201277,
203681,201342,
203777,201348,
203816,201413,
203910,201400,
203920,201477,
204018,201470,
204042,201517,
204118,201498,
204138,201557,
204221,201547,
204239,201592,
204306,201568,
204307,201627,
204409,201608,
204437,201664,
204498,201651,
204502,201709,
204598,201699,
204640,201749,
204721,201749,
204751,201819,
204844,201803,
204862,201856,
204912,201839,
204935,201881,
204970,201856,
205024,201923,
205080,201898,
205142,201956,
205200,201963,
205273,202023,
205326,202025,
205371,202074,
205433,202054,
205469,202124,
205498,202080,
205528,202133,
205570,202127,
205656,202198,
205702,202174,
205794,202266,
205855,202267,
205960,202334,
206006,202312,
206082,202376,
206093,202367,
206173,202428,
206178,202387,
206235,202452,
206255,202434,
206310,202483,
206320,202429,
206396,202535,
206418,202499,
206479,202571,
206469,202529,
206561,202588,
206590,202585,
206684,202650,
206668,202629,
206790,202703,
206780,202652,
206877,202731,
206861,202690,
206891,202721,
206759,202601,
206604,202550,
206274,202391,
205969,202259,
205551,202040,
205215,201900,
204757,201701,
204506,201603,
204171,201432,
204012,201393,
203794,201284,
203756,201292,
203627,201226,
203652,201254,
203600,201213,
203668,201247,
203603,201201,
203682,201261,
203598,201211,
203648,201237,
203563,201186,
203610,201240,
203528,201162,
203596,201227,
203562,201208,
203680,201258,
203685,201266,
203821,201353,
203840,201314,
203964,201386,
203943,201354,
204062,201433,
204021,201397,
204099,201443,
204034,201424,
204133,201463,
204086,201413,
204176,201492,
204164,201464,
204269,201539,
204252,201503,
204382,201577,
204375,201568,
204492,201636,
204506,201632,
204606,201707,
204598,201662,
204714,201741,
204698,201724,
204834,201773,
204828,201769,
204954,201831,
204953,201827,
205081,201898,
205058,201870,
205205,201955,
205157,201923,
205310,201999,
205256,201975,
205373,202028,
205340,201987,
205460,202063,
205437,202038,
205581,202104,
205567,202085,
205695,202158,
205652,202112,
205788,202202,
205740,202137,
205881,202241,
205841,202198,
205970,202276,
205934,202220,
206094,202342,
206076,202298,
206207,202389,
206207,202334,
206341,202441,
206346,202395,
206438,202464,
206423,202420,
206524,202509,
206491,202467,
206621,202526,
206623,202497,
206755,202598,
206746,202566,
206865,202641,
206853,202587,
206991,202699,
206960,202641,
207084,202744,
207062,202682,
207191,202771,
207178,202743,
207309,202820,
207294,202781,
207423,202870,
207373,202798,
207422,202849,
207247,202701,
207116,202669,
206786,202477,
206600,202430,
206214,202210,
205972,202137,
205634,201958,
205446,201923,
205197,201773,
205114,201792,
204941,201661,
204946,201720,
204843,201630,
204876,201700,
204796,201629,
204879,201691,
204801,201631,
204878,201693,
204773,201610,
204832,201668,
204745,201589,
204824,201669,
204757,201590,
204809,201666,
204776,201606,
204900,201692,
204832,201633,
204920,201703,
204847,201621,
204908,201690,
204816,201619,
204909,201690,
204809,201602,
204867,201655,

