
226553,210744,
226633,210796,
226631,210800,
226705,210840,
226700,210831,
226752,210829,
226721,210844,
226803,210866,
226799,210867,
226868,210895,
226861,210907,
226943,210932,
226932,210937,
227009,210941,
227020,210968,
227115,211012,
227152,211039,
227240,211080,
227273,211084,
227352,211118,
227379,211137,
227428,211158,
227385,211151,
227311,211087,
227088,210971,
226822,210843,
226608,210746,
226474,210673,
226341,210606,
226286,210573,
226187,210544,
226188,210525,
226165,210539,
226234,210563,
226265,210594,
226367,210626,
226391,210660,
226453,210666,
226447,210693,
226500,210700,
226465,210675,
226474,210664,
226423,210653,
226448,210645,
226406,210632,
226456,210623,
226433,210626,
226447,210620,
226442,210612,
226417,210587,
226370,210603,
226378,210576,
226335,210560,
226337,210538,
226310,210544,
226303,210537,
226312,210552,
226315,210525,
226327,210574,
226377,210550,
226376,210596,
226423,210586,
226423,210605,
226452,210608,
226487,210632,
226532,210639,
226570,210694,
226608,210708,
226663,210755,
226717,210745,
226758,210784,
226797,210800,
226820,210836,
226844,210826,
226860,210852,
226890,210825,
226933,210864,
226951,210867,
227004,210907,
227037,210911,
227073,210929,
227070,210916,
227094,210946,
227102,210940,
227127,210971,
227162,210991,
227185,211007,
227205,210981,
227228,211035,
227244,211034,
227286,211060,
227292,211032,
227320,211062,
227326,211040,
227366,211090,
227410,211098,
227471,211145,
227482,211141,
227528,211151,
227548,211143,
227582,211195,
227553,211184,
227583,211165,
227449,211089,
227263,210975,
227000,210852,
226820,210759,
226619,210638,
226519,210600,
226388,210524,
226347,210549,
226326,210507,
226381,210551,
226351,210551,
226420,210582,
226414,210572,
226458,210604,
226463,210594,
226519,210614,
226496,210622,
226588,210656,
226545,210640,
226567,210654,
226537,210626,
226545,210639,
226493,210624,
226567,210648,
226551,210626,
226620,210669,
226593,210651,
226625,210670,
226590,210648,
226620,210662,
226572,210630,
226610,210650,
226566,210616,
226611,210642,
226566,210614,
226611,210633,
226574,210614,
226625,210643,
226615,210625,
226652,210654,
226623,210613,
226656,210639,
226649,210631,
226706,210677,
226693,210668,
226770,210705,
226752,210694,
226811,210726,
226810,210717,
226874,210752,
226851,210740,
226921,210805,
226899,210774,
226972,210791,
226971,210777,
227032,210824,
226996,210811,
227062,210857,
227047,210837,
227099,210860,
227050,210843,
227080,210859,
227045,210832,
227135,210877,
227114,210824,
227156,210873,
227130,210857,
227197,210880,
227163,210869,
227224,210914,
227205,210893,
227261,210934,
227248,210887,
227304,210921,
227294,210899,
227354,210954,
227347,210939,
227411,210998,
227408,210967,
227473,211020,
227464,211003,
227537,211044,
227516,211035,
227583,211098,
227536,211033,
227549,211038,
227389,210927,
227256,210841,
227000,210724,
226857,210653,
226679,210559,
226604,210531,
226468,210444,
226439,210446,
226353,210399,
226380,210403,
226333,210389,
226421,210425,
226395,210426,
226488,210460,
226440,210446,
226513,210464,
226457,210425,
226505,210441,
226442,210403,
226479,210439,
226405,210389,
226470,210424,
226404,210382,
226468,210410,
226425,210389,
226501,210445,
226461,210415,
226544,210467,
226476,210407,
226563,210451,
226492,210425,
226568,210456,
226508,210418,
226573,210448,
226526,210396,
226578,210442,
226512,210396,
226575,210443,
226539,210422,
226628,210477,
226579,210436,
226658,210479,
226593,210451,
226675,210479,
226634,210442,
226721,210499,
226687,210468,
226766,210505,
226732,210492,
226814,210525,
226771,210492,
226828,210529,
226788,210485,
226849,210553,
226833,210522,
226913,210549,
226866,210542,
226935,210572,
226880,210546,
226939,210595,
226901,210545,
226981,210590,
226925,210557,
226999,210593,
226966,210564,
227015,210603,
226969,210576,
227063,210621,
227025,210603,
227094,210643,
227085,210615,
227145,210644,
227108,210631,
227171,210670,
227152,210652,
227237,210705,
227233,210698,
227308,210735,
227263,210690,
227308,210729,
227302,210701,
227354,210735,
227314,210718,
227397,210767,
227363,210725,
227436,210780,
227426,210772,
227494,210798,
227459,210771,
227518,210800,
227466,210767,
227548,210798,
227508,210780,
227575,210830,
227567,210789,
227640,210841,
227612,210836,
227678,210873,
227672,210874,
227750,210913,
227732,210898,
227803,210918,
227776,210905,
227781,210895,
227590,210789,
227405,210694,
227119,210553,
226965,210460,
226746,210343,
226680,210310,
226517,210230,
226527,210228,
226422,210183,
226485,210237,
226458,210210,
226541,210257,
226516,210262,
226594,210293,
226590,210276,
226659,210324,
226624,210277,
226669,210336,
226606,210299,
226645,210304,
226579,210254,
226604,210269,
226547,210234,
226621,210259,
226583,210251,
226664,210283,
226604,210265,
226689,210289,
226641,210269,
226688,210295,
226620,210255,
226679,210285,
226629,210237,
226687,210251,
226628,210233,
226686,210274,
226644,210249,
226708,210253,
226654,210224,
226694,210259,
226655,210229,
226743,210277,
226697,210266,
226785,210296,
226764,210284,
226817,210308,
226784,210307,
226861,210318,
226832,210311,
226909,210354,
226893,210344,
226955,210372,
226939,210355,
226997,210400,
226982,210385,
227033,210413,
227006,210389,
227076,210436,
227051,210429,
227122,210440,
227098,210437,
227153,210467,
227127,210438,
227204,210496,
227172,210467,
227239,210487,
227218,210501,
227296,210526,
227281,210525,
227336,210554,
227307,210540,
227397,210588,
227377,210576,
227444,210605,
227409,210588,
227474,210610,
227456,210594,
227524,210638,
227507,210642,
227571,210665,
227549,210652,
227600,210664,
227586,210655,
227647,210676,
227637,210671,
227702,210712,
227707,210715,
227781,210786,
227787,210769,
227853,210811,
227855,210798,
227915,210824,
227912,210812,
227956,210854,
227936,210811,
227933,210817,
227747,210696,
227563,210612,
227341,210491,
227184,210412,
226995,210321,
226909,210286,
226826,210231,
226823,210214,
226793,210199,
226833,210251,
226832,210253,
226889,210287,
226936,210299,
227006,210334,
226998,210332,
227059,210349,
227029,210341,
227062,210360,
227034,210342,
227067,210358,
227024,210319,
227046,210363,
227015,210339,
227073,210353,
227049,210343,
227095,210349,
227063,210342,
227123,210365,
227080,210343,
227121,210366,
227071,210324,
227111,210369,
227064,210331,
227108,210340,
227062,210307,
227095,210334,
227087,210318,
227123,210347,
227111,210346,
227176,210362,
227133,210366,
227201,210391,
227183,210385,
227247,210399,
227227,210392,
227292,210413,
227269,210421,
227352,210444,
227316,210438,
227398,210477,
227386,210485,
227448,210494,
227410,210502,
227493,210514,
227457,210489,
227529,210526,
227482,210517,
227535,210526,
227521,210543,
227577,210555,
227565,210551,
227592,210569,
227598,210550,
227641,210575,
227613,210570,
227656,210583,
227656,210585,
227705,210608,
227707,210608,
227758,210628,
227757,210641,
227830,210664,
227808,210655,
227865,210679,
227845,210686,
227904,210690,
227900,210708,
227951,210708,
227954,210721,
227991,210724,
227973,210749,
228043,210769,
228048,210767,
228087,210786,
228083,210795,
228144,210806,
228142,210816,
228190,210817,
228180,210830,
228192,210806,
228124,210790,
228019,210704,
227765,210578,
227591,210468,
227387,210384,
227247,210317,
227108,210247,
227048,210194,
226997,210187,
227003,210199,
226992,210206,
227056,210206,
227060,210237,
227136,210260,
227160,210306,
227210,210312,
227233,210347,
227219,210299,
227209,210319,
227241,210295,
227223,210289,
227225,210280,
227203,210300,
227225,210298,
227224,210321,
227279,210315,
227280,210329,
227309,210325,
227283,210343,
227303,210305,
227308,210334,
227326,210302,
227302,210322,
227305,210317,
227279,210334,
227291,210299,
227305,210320,
227310,210311,
227326,210335,
227347,210312,
227375,210339,
227397,210319,
227417,210359,
227411,210337,
227460,210371,
227453,210353,
227492,210397,
227502,210396,
227526,210418,
227542,210411,
227591,210440,
227605,210439,
227645,210450,
227648,210434,
227670,210452,
227663,210452,
227697,210493,
227709,210454,
227715,210496,
227725,210498,
227780,210511,
227763,210479,
227790,210502,
227780,210491,
227818,210525,
227795,210502,
227854,210526,
227849,210516,
227898,210554,
227870,210535,
227912,210555,
227926,210558,
227970,210593,
227933,210559,
227984,210583,
227973,210561,
228046,210598,
228013,210599,
228059,210637,
228057,210614,
228112,210655,
228085,210621,
228149,210636,
228116,210631,
228160,210650,
228145,210643,
228191,210675,
228179,210648,
228238,210697,
228213,210688,
228285,210717,
228281,210711,
228332,210757,
228332,210720,
228375,210729,
228241,210680,
228153,210616,
227899,210474,
227718,210393,
227505,210248,
227392,210218,
227215,210115,
227173,210093,
227083,210039,
227104,210072,
227054,210039,
227101,210081,
227111,210099,
227171,210131,
227156,210111,
227233,210167,
227225,210125,
227268,210172,
227226,210129,
227257,210153,
227204,210099,
227230,210143,
227189,210084,
227185,210121,
227160,210075,
227221,210105,
227199,210095,
227245,210129,
227212,210115,
227255,210161,
227256,210097,
227281,210156,
227231,210099,
227260,210128,
227223,210067,
227263,210121,
227216,210075,
227250,210115,
227236,210078,
227274,210114,
227243,210089,
227302,210121,
227278,210116,
227327,210143,
227319,210117,
227387,210167,
227352,210131,
227419,210173,
227382,210136,
227433,210193,
227423,210156,
227489,210216,
227475,210190,
227532,210235,
227524,210223,
227586,210259,
227568,210212,
227624,210259,
227588,210232,
227643,210254,
227591,210220,
227664,210259,
227620,210237,
227693,210291,
227649,210266,
227746,210313,
227693,210277,
227759,210314,
227730,210275,
227791,210314,
227747,210285,
227842,210344,
227793,210320,
227892,210360,
227857,210339,
227918,210375,
227878,210352,
227962,210417,
227922,210403,
227997,210427,
227994,210394,
228066,210435,
228033,210405,
228120,210456,
228080,210430,
228162,210478,
228104,210435,
228166,210476,
228099,210423,
228186,210475,
228152,210436,
228239,210496,
228189,210468,
228280,210518,
228235,210506,
228316,210530,
228290,210516,
228362,210556,
228340,210549,
228431,210585,
228391,210564,
228432,210586,
228309,210488,
228166,210399,
227860,210227,
227647,210149,
227395,210013,
227270,209973,
227085,209865,
227054,209868,
226967,209807,
226993,209845,
226969,209813,
227028,209860,
227016,209842,
227117,209888,
227098,209889,
227185,209957,
227154,209913,
227235,209962,
227193,209901,
227217,209934,
227154,209897,
227201,209908,
227126,209877,
227148,209878,
227095,209854,
227163,209902,
227148,209877,
227210,209905,
227169,209874,
227228,209912,
227166,209874,
227193,209916,
227146,209855,
227179,209890,
227132,209840,
227142,209863,
227113,209842,
227168,209865,
227124,209821,
227160,209850,
227144,209854,
227214,209875,
227179,209855,
227251,209873,
227190,209855,
227276,209908,
227249,209894,
227328,209933,
227286,209915,
227355,209940,
227331,209919,
227405,209953,
227364,209939,
227449,209970,
227411,209939,
227488,209974,
227451,209949,
227507,209995,
227463,209957,
227532,209992,
227481,209986,
227562,210006,
227536,210006,
227602,210038,
227581,210022,
227642,210041,
227593,210032,
227680,210055,
227634,210034,
227726,210063,
227695,210064,
227777,210077,
227762,210082,
227826,210117,
227788,210090,
227843,210128,
227825,210112,
227888,210139,
227845,210132,
227906,210167,
227893,210152,
227952,210185,
227952,210157,
228012,210203,
227979,210162,
228056,210199,
228016,210199,
228099,210213,
228067,210198,
228156,210245,
228158,210223,
228229,210280,
228186,210260,
228239,210273,
228146,210233,
228066,210171,
227794,210021,
227577,209912,
227332,209814,
227197,209736,
227037,209657,
226967,209664,
226895,209603,
226907,209625,
226878,209605,
226954,209640,
226959,209650,
227032,209702,
227041,209676,
227117,209741,
227101,209709,
227172,209747,
227146,209739,
227171,209755,
227152,209718,
227176,209763,
227147,209732,
227190,209754,
227193,209739,
227216,209765,
227213,209753,
227270,209778,
227226,209750,
227266,209777,
227215,209738,
227235,209756,
227187,209720,
227198,209739,
227180,209715,
227199,209737,
227182,209727,
227234,209747,
227229,209736,
227266,209753,
227233,209738,
227298,209767,
227283,209759,
227335,209804,
227325,209788,
227375,209820,
227374,209813,
227428,209841,
227426,209839,
227491,209877,
227489,209861,
227553,209910,
227532,209905,
227596,209928,
227594,209908,
227640,209962,
227631,209946,
227693,209969,
227671,209947,
227728,209976,
227685,209949,
227752,209963,
227731,209951,
227793,209982,
227758,209978,
227809,210009,
227804,210000,
227863,210027,
227833,210018,
227906,210040,
227907,210047,
227943,210093,
227964,210062,
228011,210103,
228022,210122,
228067,210124,
228056,210128,
228102,210154,
228121,210141,
228168,210179,
228165,210177,
228199,210182,
228195,210194,
228249,210201,
228245,210211,
228295,210234,
228314,210228,
228370,210248,
228358,210249,
228426,210279,
228414,210265,
228461,210285,
228383,210233,
228208,210133,
227897,209987,
227643,209839,
227407,209736,
227256,209645,
227088,209579,
227023,209536,
226918,209508,
226917,209495,
226891,209510,
226928,209503,
226928,209526,
226997,209547,
227014,209580,
227061,209592,
227068,209600,
227099,209615,
227097,209620,
227121,209619,
227095,209602,
227115,209587,
227085,209604,
227089,209575,
227072,209590,
227093,209586,
227102,209607,
227112,209572,
227116,209603,
227119,209577,
227097,209585,
227100,209567,
227070,209588,
227086,209552,
227084,209575,
227068,209544,
227069,209562,
227074,209535,
227085,209560,
227089,209544,
227103,209582,
227116,209566,
227144,209586,
227151,209562,
227172,209592,
227178,209572,
227218,209614,
227215,209603,
227291,209656,
227315,209645,
227343,209697,
227345,209655,
227380,209694,
227372,209660,
227406,209697,
227423,209673,
227448,209703,
227448,209704,
227480,209739,
227470,209707,
227512,209733,
227485,209702,
227519,209732,
227498,209715,
227553,209753,
227535,209730,
227590,209775,
227563,209747,
227629,209781,
227604,209750,
227651,209801,
227666,209783,
227726,209808,
227726,209795,
227771,209822,
227756,209828,
227809,209848,
227784,209835,
227846,209856,
227820,209845,
227898,209887,
227891,209889,
227957,209916,
227940,209894,
227998,209926,
227988,209907,
228044,209958,
228013,209916,
228068,209950,
228053,209934,
228129,209990,
228118,209960,
228165,210010,
228166,209992,
228259,210050,
228253,210030,
228312,210085,
228270,210060,
228285,210059,
228088,209934,
227842,209816,
227549,209648,
227326,209545,
227098,209443,
226987,209394,
226845,209308,
226798,209329,
226718,209249,
226739,209287,
226703,209262,
226754,209293,
226723,209285,
226829,209329,
226807,209301,
226876,209365,
226867,209334,
226919,209367,
226886,209313,
226916,209349,
226854,209319,
226884,209359,
226839,209311,
226871,209338,
226828,209306,
226900,209359,
226871,209324,
226932,209368,
226899,209338,
226944,209384,
226890,209325,
226932,209374,
226886,209314,
226907,209353,
226842,209307,
226883,209349,
226838,209306,
226920,209344,
226868,209320,
226935,209372,
226879,209328,
226967,209362,
226907,209333,
227007,209378,
226957,209375,
227046,209421,
226999,209373,
227106,209438,
227076,209387,
227138,209449,
227115,209429,
227201,209461,
227149,209449,
227241,209487,
227198,209451,
227276,209503,
227224,209476,
227305,209506,
227264,209494,
227341,209532,
227302,209501,
227358,209522,
227319,209513,
227377,209536,
227346,209522,
227432,209577,
227403,209559,
227474,209587,
227445,209554,
227520,209603,
227478,209577,
227562,209626,
227538,209622,
227628,209660,
227586,209649,
227672,209674,
227639,209667,
227725,209725,
227692,209691,
227776,209742,
227758,209721,
227823,209766,
227783,209743,
227863,209784,
227834,209764,
227920,209816,
227918,209800,
227982,209844,
227959,209845,
228055,209877,
228050,209851,
228112,209906,
228099,209884,
228193,209934,
228190,209913,
228187,209924,
228029,209826,
227828,209716,
227489,209551,
227312,209470,
227073,209368,
226975,209341,
226817,209249,
226770,209256,
226679,209203,
226724,209209,
226683,209195,
226753,209262,
226748,209248,
226836,209284,
226824,209274,
226910,209318,
226883,209297,
226939,209345,
226902,209315,
226961,209320,
226899,209290,
226960,209319,
226875,209293,
226953,209334,
226906,209305,
226973,209333,
226937,209298,
226996,209336,
226951,209305,
226984,209324,
226913,209296,
226963,209327,
226887,209272,
226948,209308,
226890,209270,
226933,209301,
226882,209270,
226962,209305,
226935,209316,
227021,209319,
226968,209303,
227032,209345,
227021,209342,
227079,209381,
227081,209364,
227152,209422,
227103,209405,
227196,209436,
227162,209406,
227238,209448,
227211,209434,
227274,209458,
227272,209440,
227333,209491,
227298,209479,
227360,209507,
227333,209492,
227386,209504,
227359,209482,
227403,209506,
227395,209506,
227461,209526,
227426,209517,
227488,209536,
227451,209523,
227531,209565,
227507,209563,
227562,209584,
227548,209564,
227604,209595,
227607,209595,
227657,209621,
227630,209603,
227684,209635,
227687,209618,
227746,209661,
227733,209641,
227818,209682,
227806,209679,
227884,209711,
227857,209701,
227948,209757,
227943,209742,
227992,209784,
228005,209767,
228066,209811,
228071,209807,
228110,209839,
228059,209788,
227963,209738,
227700,209603,
227464,209485,
227215,209363,
227047,209326,
226877,209223,
226776,209197,
226672,209140,
226658,209143,
226587,209121,
226632,209136,
226604,209130,
226678,209163,
226685,209163,
226756,209200,
226733,209191,
226784,209226,
226746,209193,
226805,209223,
226727,209178,
226757,209191,
226705,209151,
226737,209166,
226692,209148,
226744,209180,
226740,209160,
226810,209204,
226753,209182,
226770,209188,
226725,209161,
226748,209175,
226682,209132,
226697,209131,
226662,209116,
226685,209125,
226657,209130,
226692,209121,
226671,209113,
226700,209133,
226672,209108,
226711,209136,
226693,209135,
226748,209140,
226754,209161,
226805,209178,
226790,209186,
226834,209188,
226833,209213,
226886,209217,
226897,209230,
226938,209245,
226932,209265,
226980,209256,
226970,209297,
227011,209276,
227011,209305,
227051,209297,
227047,209311,
227070,209318,
227056,209319,
227113,209327,
227108,209338,
227137,209344,
227132,209341,
227165,209350,
227171,209376,
227208,209363,
227205,209396,
227238,209397,
227252,209408,
227281,209410,
227283,209428,
227328,209425,
227340,209429,
227369,209440,
227384,209468,
227418,209468,
227441,209503,
227480,209494,
227488,209523,
227524,209516,
227527,209541,
227581,209527,
227588,209563,
227626,209560,
227659,209602,
227688,209591,
227717,209628,
227737,209610,
227764,209620,
227789,209639,
227815,209665,
227798,209642,
227716,209603,
227501,209473,
227229,209348,
226949,209220,
226751,209132,
226550,209035,
226417,208984,
226290,208935,
226251,208919,
226154,208875,
226169,208886,
226145,208870,
226189,208912,
226186,208899,
226255,208952,
226239,208922,
226279,208953,
226257,208930,
226286,208958,
226216,208920,
226240,208936,
226194,208904,
226204,208905,
226153,208885,
226196,208906,
226190,208900,
226223,208928,
226199,208888,
226243,208925,
226192,208901,
226217,208936,
226166,208898,
226212,208911,
226163,208883,
226171,208909,
226133,208864,
226174,208902,
226139,208863,
226196,208891,
226155,208865,
226208,208901,
226201,208896,
226247,208928,
226242,208920,
226293,208943,
226271,208932,
226334,208976,
226334,208953,
226403,209004,
226393,208974,
226426,209014,
226415,209001,
226483,209026,
226457,209002,
226520,209050,
226507,209041,
226564,209071,
226535,209044,
226600,209089,
226570,209062,
226606,209099,
226594,209050,
226624,209100,
226593,209069,
226664,209132,
226626,209090,
226690,209136,
226654,209110,
226724,209149,
226685,209106,
226761,209178,
226735,209154,
226823,209208,
226803,209175,
226862,209247,
226855,209213,
226930,209251,
226904,209228,
226990,209283,
226967,209256,
227075,209311,
227027,209277,
227108,209345,
227073,209306,
227147,209361,
227107,209339,
227212,209382,
227167,209359,
227251,209383,
227221,209372,
227289,209410,
227234,209383,
227329,209423,
227279,209400,
227358,209427,
227335,209415,
227435,209482,
227421,209482,
227501,209506,
227498,209507,
227574,209551,
227508,209495,
227404,209442,
227088,209295,
226871,209183,
226571,209058,
226430,209000,
226185,208905,
226106,208844,
225942,208768,
225911,208780,
225831,208745,
225861,208773,
225824,208746,
225868,208785,
225853,208757,
225923,208826,
225888,208790,
225956,208824,
225911,208795,
225963,208824,
225890,208774,
225949,208819,
225854,208759,
225873,208792,
225788,208729,
225876,208766,
225814,208736,
225877,208790,
225844,208760,
225898,208787,
225831,208755,
225857,208782,
225779,208723,
225819,208763,
225752,208707,
225781,208740,
225738,208705,
225787,208748,
225743,208710,
225827,208757,
225778,208756,
225837,208782,
225810,208764,
225867,208793,
225850,208793,
225902,208813,
225890,208791,
225969,208851,
225959,208824,
226033,208872,
225998,208851,
226063,208881,
226023,208874,
226094,208898,
226066,208870,
226135,208910,
226103,208891,
226179,208942,
226164,208921,
226233,208937,
226208,208936,
226274,208976,
226228,208954,
226302,208995,
226267,208970,
226340,208992,
226316,208994,
226389,209046,
226362,209012,
226424,209036,
226397,209030,
226469,209069,
226469,209057,
226559,209089,
226537,209092,
226618,209137,
226600,209118,
226644,209154,
226629,209133,
226695,209167,
226689,209144,
226736,209192,
226751,209186,
226820,209227,
226812,209191,
226900,209267,
226855,209246,
226941,209279,
226930,209270,
226997,209300,
226995,209308,
227083,209367,
227099,209353,
227152,209385,
227147,209389,
227150,209384,
226970,209284,
226790,209211,
226504,209063,
226310,208998,
226093,208869,
225963,208851,
225793,208781,
225738,208764,
225634,208718,
225624,208725,
225583,208706,
225610,208735,
225631,208723,
225672,208774,
225663,208762,
225737,208799,
225710,208795,
225798,208808,
225731,208799,
225753,208785,
225698,208772,
225690,208759,
225646,208752,
225691,208750,
225646,208757,
225714,208772,
225696,208755,
225740,208783,
225706,208754,
225694,208763,
225648,208749,
225670,208727,
225622,208713,
225639,208737,
225610,208707,
225657,208745,
225625,208730,
225662,208749,
225655,208736,
225689,208765,
225674,208762,
225732,208780,
225721,208782,
225782,208811,
225775,208813,
225813,208835,
225827,208820,
225855,208847,
225872,208844,
225917,208856,
225927,208874,
225978,208894,
225985,208895,
226043,208921,
226042,208926,
226096,208953,
226060,208961,
226129,208952,
226101,208975,
226159,208968,
226153,208997,
226197,208995,
226195,209006,
226232,209039,
226215,209015,
226259,209017,
226261,209060,
226311,209059,
226329,209078,
226354,209095,
226362,209117,
226406,209112,
226416,209132,
226455,209129,
226482,209162,
226547,209181,
226521,209207,
226565,209197,
226584,209224,
226607,209206,
226618,209238,
226646,209242,
226688,209270,
226727,209275,
226755,209308,
226796,209305,
226833,209331,
226864,209326,
226920,209373,
226946,209375,
226964,209390,
226931,209358,
226850,209330,
226601,209188,
226362,209107,
226131,208977,
225918,208901,
225713,208820,
225580,208775,
225458,208690,
225387,208683,
225326,208640,
225323,208674,
225310,208647,
225372,208687,
225368,208679,
225429,208723,
225417,208716,
225456,208748,
225429,208720,
225447,208740,
225405,208694,
225409,208723,
225335,208671,
225357,208690,
225307,208667,
225358,208711,
225335,208696,
225400,208724,
225371,208702,
225403,208715,
225372,208698,
225399,208722,
225339,208689,
225368,208711,
225310,208689,
225342,208702,
225305,208668,
225353,208707,
225304,208670,
225356,208729,
225361,208699,
225408,208744,
225380,208705,
225438,208748,
225411,208713,
225476,208786,
225474,208770,
225551,208812,
225544,208769,
225608,208836,
225602,208812,
225647,208871,
225632,208830,
225701,208894,
225693,208854,
225772,208912,
225750,208882,
225823,208944,
225786,208903,
225839,208963,
225812,208915,
225874,208952,
225876,208935,
225937,208978,
225915,208967,
225988,209026,
225942,208999,
226030,209051,
226024,209027,
226090,209062,
226076,209054,
226143,209103,
226127,209090,
226212,209135,
226184,209118,
226263,209179,
226255,209165,
226339,209214,
226308,209179,
226388,209230,
226355,209204,
226439,209230,
226406,209208,
226463,209278,
226444,209242,
226540,209293,
226533,209297,
226639,209336,
226619,209321,
226720,209376,
226689,209353,
226760,209397,
226683,209351,
226649,209338,
226420,209205,
226271,209155,
225990,209040,
225857,208973,
225609,208866,
225506,208818,
225310,208741,
225289,208746,
225197,208705,
225233,208723,
225160,208681,
225225,208723,
225192,208691,
225252,208734,
225211,208706,
225285,208754,
225229,208723,
225269,208737,
225213,208704,
225235,208724,
225141,208662,
225173,208686,
225125,208666,
225179,208709,
225154,208696,
225219,208754,
225186,208713,
225259,208758,
225204,208715,
225254,208756,
225200,208714,
225216,208729,
225155,208694,
225192,208737,
225146,208699,
225217,208723,
225165,208684,
225195,208737,
225177,208710,
225259,208759,
225235,208728,
225293,208776,
225258,208750,
225327,208791,
225310,208771,
225375,208805,
225356,208807,
225436,208851,
225425,208846,
225503,208883,
225495,208863,
225569,208906,
225518,208882,
225613,208913,
225595,208912,
225670,208961,
225665,208948,
225730,208973,
225690,208965,
225768,208999,
225748,208970,
225820,209006,
225793,208996,
225874,209042,
225833,209032,
225926,209075,
225907,209069,
225992,209104,
225953,209084,
226015,209133,
226000,209133,
226084,209140,
226078,209147,
226140,209181,
226129,209175,
226218,209226,
226209,209219,
226281,209268,
226277,209275,
226366,209288,
226345,209290,
226408,209326,
226425,209308,
226485,209361,
226472,209352,
226544,209382,
226534,209370,
226523,209386,
226389,209293,
226242,209218,
226004,209104,
225871,209050,
225671,208980,
225585,208957,
225437,208885,
225394,208871,
225323,208854,
225333,208867,
225315,208850,
225362,208887,
225356,208867,
225420,208927,
225417,208889,
225450,208938,
225436,208904,
225447,208918,
225419,208885,
225416,208897,
225365,208864,
225392,208886,
225368,208864,
225400,208909,
225371,208874,
225442,208892,
225426,208883,
225476,208920,
225442,208892,
225477,208931,
225448,208891,
225455,208916,
225424,208887,
225439,208897,
225394,208876,
225442,208888,
225412,208880,
225456,208904,
225471,208904,
225514,208907,
225494,208916,
225548,208948,
225533,208945,
225588,208963,
225575,208956,
225635,209005,
225642,209008,
225687,209026,
225698,209017,
225749,209050,
225738,209044,
225800,209069,
225804,209101,
225844,209093,
225868,209100,
225908,209120,
225893,209117,
225936,209149,
225948,209140,
225989,209157,
225970,209144,
226009,209155,
226020,209164,
226074,209188,
226072,209192,
226106,209206,
226113,209229,
226164,209215,
226161,209219,
226214,209238,
226199,209254,
226261,209265,
226265,209259,
226320,209270,
226323,209295,
226357,209325,
226372,209332,
226436,209340,
226435,209349,
226499,209370,
226516,209387,
226564,209402,
226595,209429,
226647,209420,
226643,209438,
226663,209429,
226669,209444,
226659,209416,
226566,209379,
226401,209289,
226249,209221,
226100,209152,
225971,209097,
225857,209058,
225771,209041,
225727,209020,
225727,209038,
225714,209030,
225754,209058,
225763,209061,
225787,209083,
225830,209081,
225852,209130,
225849,209083,
225864,209124,
225868,209115,
225888,209136,
225844,209079,
225857,209091,
225807,209078,
225846,209097,
225834,209083,
225894,209113,
225904,209097,
225961,209139,
225952,209111,
225985,209162,
225936,209113,
225972,209154,
225944,209125,
225976,209138,
225928,209105,
225975,209128,
225946,209120,
225993,209125,
225962,209108,
226019,209151,
225995,209131,
226061,209174,
226056,209156,
226093,209187,
226082,209173,
226146,209221,
226126,209191,
226206,209220,
226186,209204,
226251,209249,
226244,209224,
226309,209273,
226271,209250,
226348,209300,
226343,209281,
226406,209320,
226377,209290,
226445,209343,
226434,209304,
226498,209346,
226472,209327,
226525,209356,
226509,209344,
226575,209407,
226566,209375,
226619,209424,
226623,209396,
226677,209450,
226675,209428,
226716,209478,
226714,209453,
226797,209516,
226775,209477,
226849,209522,
226820,209527,
226907,209578,
226875,209543,
226943,209593,
226935,209562,
226980,209605,
226964,209568,
227019,209624,
226994,209594,
227075,209635,
227065,209609,
227151,209664,
227135,209656,
227195,209690,
227180,209676,
227227,209705,
227199,209684,
227213,209677,
227026,209583,
226922,209552,
226722,209427,
226620,209401,
226415,209300,
226379,209303,
226256,209237,
226275,209260,
226196,209218,
226271,209243,
226230,209231,
226315,209297,
226297,209271,
226340,209308,
226319,209277,
226363,209308,
226337,209278,
226373,209309,
226319,209277,
226367,209308,
226267,209247,
226319,209280,
226270,209238,
226339,209286,
226293,209246,
226354,209305,
226338,209292,
226402,209315,
226369,209288,
226412,209318,
226359,209264,
226416,209305,
226383,209278,
226423,209322,
226370,209282,
226419,209319,
226385,209294,
226420,209321,
226400,209287,
226455,209346,
226434,209301,
226523,209355,
226502,209324,
226555,209382,
226516,209356,
226571,209391,
226550,209362,
226609,209388,
226598,209362,
226637,209411,
226650,209392,
226716,209463,
226682,209419,
226746,209466,
226718,209437,
226761,209464,
226744,209436,
226822,209478,
226780,209466,
226842,209500,
226801,209478,
226862,209503,
226830,209460,
226915,209511,
226876,209524,
226946,209548,
226918,209509,
226993,209549,
226965,209527,
227040,209571,
227025,209551,
227116,209598,
227081,209567,
227172,209625,
227158,209620,
227218,209655,
227178,209629,
227247,209659,
227240,209636,
227300,209676,
227278,209661,
227353,209721,
227325,209715,
227383,209723,
227357,209719,
227415,209732,
227395,209718,
227502,209751,
227462,209758,
227546,209791,
227503,209776,
227565,209811,
227562,209798,
227640,209832,
227613,209809,
227672,209844,
227599,209817,
227560,209793,
227373,209690,
227242,209647,
227058,209522,
226946,209498,
226800,209427,
226741,209421,
226641,209394,
226639,209399,
226579,209382,
226633,209407,
226604,209397,
226697,209424,
226662,209427,
226733,209469,
226725,209441,
226777,209464,
226772,209430,
226781,209482,
226734,209446,
226750,209449,
226703,209416,
226707,209438,
226684,209423,
226743,209452,
226738,209443,
226784,209494,
226785,209469,
226830,209500,
226813,209488,
226872,209506,
226833,209494,
226856,209496,
226830,209485,
226856,209494,
226827,209501,
226862,209483,
226856,209478,
226909,209526,
226884,209503,
226895,209518,
226883,209499,
226959,209524,
226936,209527,
227007,209553,
226992,209556,
227023,209552,
226990,209544,
227051,209559,
227029,209547,
227095,209583,
227090,209608,
227135,209613,
227129,209598,
227174,209640,
227172,209611,
227219,209637,
227215,209647,
227249,209665,
227242,209666,
227283,209659,
227271,209663,
227336,209686,
227333,209695,
227373,209720,
227363,209737,
227416,209756,
227395,209738,
227454,209751,
227466,209749,
227514,209753,
227508,209786,
227546,209788,
227535,209794,
227588,209784,
227594,209816,
227636,209852,
227636,209858,
227696,209853,
227675,209856,
227718,209863,
227724,209855,
227773,209897,
227763,209915,
227798,209899,
227789,209926,
227813,209906,
227833,209931,
227870,209917,
227887,209964,
227951,209977,
227954,209998,
227981,210004,
228009,210015,
228029,210010,
228033,210014,
227968,209964,
227888,209945,
227690,209832,
227539,209791,
227390,209699,
227267,209665,
227167,209615,
227117,209627,
227085,209594,
227065,209616,
227077,209594,
227113,209636,
227134,209611,
227183,209656,
227208,209669,
227235,209696,
227221,209669,
227262,209686,
227240,209670,
227262,209686,
227213,209671,
227232,209691,
227192,209656,
227235,209674,
227213,209640,
227271,209668,
227252,209672,
227311,209722,
227290,209677,
227337,209721,
227292,209687,
227311,209686,
227269,209655,
227304,209684,
227234,209660,
227280,209675,
227248,209630,
227303,209672,
227269,209655,
227315,209675,
227281,209647,
227316,209674,
227269,209641,
227336,209692,
227301,209673,
227354,209701,
227329,209691,
227412,209724,
227369,209674,
227418,209720,
227418,209698,
227462,209729,
227446,209707,
227480,209736,
227449,209683,
227504,209753,
227455,209701,
227519,209729,
227510,209708,
227562,209758,
227523,209721,
227596,209770,
227539,209729,
227605,209778,
227565,209734,
227629,209789,
227619,209758,
227649,209806,
227634,209781,
227696,209811,
227680,209775,
227743,209829,
227730,209800,
227803,209864,
227754,209833,
227817,209871,
227788,209819,
227867,209856,
227829,209846,
227924,209907,
227874,209893,
227940,209911,
227896,209880,
227978,209922,
227943,209905,
228059,209946,
228005,209926,
228087,209988,
228056,209967,
228132,209991,
228105,209965,
228189,209992,
228157,209968,
228216,210025,
228123,209978,
228105,209963,
227891,209830,
227760,209771,
227527,209652,
227419,209637,
227239,209543,
227195,209547,
227101,209479,
227103,209506,
227053,209485,
227102,209520,
227039,209490,
227117,209537,
227056,209487,
227170,209532,
227138,209522,
227202,209558,
227143,209517,
227203,209556,
227125,209486,
227145,209494,
227102,209458,
227124,209497,
227086,209466,
227147,209523,
227121,209468,
227214,209543,
227186,209525,
227227,209555,
227181,209506,
227208,209536,
227168,209483,
227208,209522,
227181,209483,
227215,209516,
227145,209479,
227184,209502,
227170,209474,
227222,209525,
227217,209488,
227280,209562,
227232,209507,
227288,209560,
227269,209529,
227328,209582,
227322,209550,
227376,209587,
227368,209568,
227447,209617,
227416,209591,
227458,209627,
227446,209605,
227522,209639,
227478,209615,
227525,209663,
227493,209624,
227572,209668,
227521,209624,
227604,209669,
227585,209629,
227652,209694,
227600,209663,
227665,209717,
227615,209675,
227706,209698,
227659,209686,
227744,209744,
227711,209719,
227803,209767,
227775,209757,
227847,209786,
227829,209750,
227901,209795,
227881,209792,
227947,209831,
227905,209816,
227974,209844,
227962,209837,
228047,209863,
228042,209855,
228111,209907,
228078,209899,
228136,209914,
228113,209883,
228175,209916,
228157,209910,
228218,209934,
228190,209926,
228238,209946,
228217,209928,
228261,209947,
228240,209926,
228314,209966,
228291,209947,
228335,209981,
228305,209939,
228396,209999,
228386,209977,
228418,210027,
228398,210008,
228407,210000,
228310,209939,
228206,209878,
227958,209752,
227789,209683,
227549,209578,
227410,209545,
227254,209442,
227226,209466,
227112,209420,
227106,209428,
227078,209411,
227130,209446,
227111,209419,
227167,209462,
227171,209454,
227239,209487,
227217,209484,
227264,209496,
227204,209490,
227252,209480,
227220,209474,
227222,209490,
227166,209451,
227176,209472,
227157,209442,
227195,209471,
227204,209475,
227268,209512,
227243,209497,
227276,209520,
227254,209490,
227300,209504,
227280,209497,
227289,209526,
227264,209502,
227299,209495,
227271,209480,
227304,209513,
227278,209508,
227338,209517,
227291,209519,
227361,209538,
227357,209532,
227454,209583,
227409,209584,
227456,209583,
227438,209573,
227497,209586,
227484,209586,
227564,209624,
227549,209619,
227591,209647,
227583,209645,
227628,209659,
227628,209650,
227708,209697,
227687,209707,
227715,209698,
227698,209689,
227739,209698,
227732,209719,
227766,209727,
227763,209725,
227778,209719,
227772,209721,
227818,209713,
227809,209736,
227852,209742,
227824,209738,
227869,209756,
227881,209755,
227934,209780,
227905,209776,
227955,209788,
227946,209794,
227984,209805,
228006,209805,
228070,209832,
228098,209851,
228137,209876,
228118,209862,
228162,209873,
228169,209877,
228204,209888,
228200,209919,
228232,209894,
228249,209926,
228271,209924,
228298,209933,
228353,209926,
228342,209970,
228371,209961,
228396,209977,
228405,209980,
228443,209994,
228471,210004,
228509,210059,
228531,210039,
228545,210068,
228558,210035,
228488,210015,
228286,209926,
228062,209816,
227813,209701,
227650,209619,
227514,209557,
227401,209539,
227300,209488,
227257,209488,
227226,209453,
227262,209482,
227280,209484,
227301,209525,
227296,209498,
227352,209529,
227340,209511,
227389,209529,
227358,209522,
227415,209553,
227367,209527,
227379,209538,
227334,209516,
227381,209526,
227357,209518,
227395,209538,
227364,209506,
227422,209552,
227399,209528,
227437,209549,
227403,209527,
227423,209564,
227386,209524,
227394,209518,
227354,209506,
227416,209536,
227381,209510,
227429,209534,
227373,209494,
227408,209533,
227408,209509,
227458,209560,
227438,209525,
227490,209564,
227481,209562,
227530,209587,
227514,209555,
227591,209595,
227573,209561,
227621,209622,
227586,209591,
227650,209602,
227622,209602,
227678,209648,
227643,209609,
227717,209654,
227696,209633,
227756,209663,
227732,209641,
227775,209687,
227727,209628,
227787,209667,
227759,209627,
227807,209674,
227779,209645,
227807,209666,
227773,209627,
227845,209655,
227822,209641,
227851,209695,
227836,209650,
227879,209680,
227860,209636,
227918,209690,
227903,209674,
227935,209721,
227924,209683,
227973,209722,
227941,209692,
228019,209736,
227999,209719,
228065,209761,
228022,209721,
228079,209767,
228050,209716,
228144,209784,
228116,209763,
228186,209811,
228153,209776,
228234,209800,
228223,209788,
228300,209862,
228270,209820,
228363,209879,
228330,209858,
228429,209886,
228413,209895,
228409,209902,
228268,209807,
228141,209753,
227868,209591,
227731,209566,
227467,209454,
227370,209413,
227192,209325,
227165,209322,
227057,209269,
227066,209318,
226990,209269,
227050,209294,
227024,209291,
227119,209324,
227107,209295,
227174,209364,
227139,209330,
227189,209338,
227152,209303,
227205,209348,
227137,209321,
227175,209335,
227114,209289,
227151,209319,
227142,209301,
227206,209346,
227154,209318,
227219,209343,
227172,209304,
227226,209363,
227183,209314,
227195,209349,
227153,209305,
227162,209297,
227118,209251,
227186,209323,
227111,209283,
227170,209329,
227161,209308,
227206,209333,
227209,209316,
227264,209371,
227224,209341,
227277,209367,
227284,209354,
227370,209429,
227362,209409,
227427,209470,
227415,209422,
227459,209457,
227453,209427,
227540,209473,
227520,209469,
227559,209493,
227568,209492,
227630,209525,
227626,209498,
227672,209539,
227627,209509,
227675,209544,
227640,209511,
227701,209545,
227669,209528,
227734,209558,
227695,209531,
227754,209557,
227756,209557,
227828,209618,
227802,209584,
227874,209611,
227839,209594,
227925,209633,
227924,209633,
228019,209695,
227985,209675,
228073,209733,
228067,209701,
228164,209747,
228154,209736,
228244,209805,
228228,209777,
228284,209818,
228270,209790,
228361,209829,
228340,209832,
228401,209857,
228395,209839,
228456,209870,
228453,209861,
228538,209922,
228515,209899,
228576,209916,
228559,209899,
228650,209954,
228601,209951,
228650,209944,
228563,209889,
228440,209832,
228116,209693,
227843,209562,
227558,209413,
227416,209361,
227206,209282,
227131,209267,
227010,209205,
226981,209195,
226949,209164,
226959,209189,
226913,209167,
226999,209219,
226983,209198,
227069,209239,
227034,209228,
227071,209256,
227066,209213,
227077,209234,
227040,209206,
227091,209235,
227021,209193,
227031,209219,
227015,209187,
227063,209229,
227030,209211,
227084,209241,
227063,209226,
227124,209254,
227097,209229,
227117,209250,
227072,209230,
227073,209224,
227037,209195,
227047,209222,
227039,209208,
227058,209223,
227045,209211,
227078,209218,
227083,209209,
227116,209267,
227125,209266,
227161,209267,
227159,209257,
227221,209311,
227210,209291,
227255,209324,
227242,209315,
227306,209341,
227313,209345,
227377,209379,
227381,209382,
227434,209408,
227438,209367,
227502,209466,
227482,209444,
227527,209438,
227520,209400,
227579,209446,
227538,209445,
227589,209475,
227583,209466,
227640,209479,
227632,209484,
227660,209511,
227647,209466,
227708,209498,
227690,209514,
227765,209536,
227741,209545,
227789,209540,
227789,209527,
227862,209558,
227838,209563,
227894,209604,
227902,209589,
227990,209611,
227976,209635,
228031,209666,
228015,209636,
228055,209663,
228098,209669,
228134,209696,
228130,209686,
228178,209709,
228166,209677,
228235,209717,
228239,209730,
228262,209746,
228268,209738,
228333,209750,
228327,209752,
228371,209774,
228338,209751,
228219,209704,
227978,209579,
227734,209464,
227511,209352,
227344,209293,
227159,209235,
227049,209172,
226943,209141,
226905,209116,
226861,209137,
226880,209104,
226901,209145,
226938,209160,
226970,209166,
227028,209203,
227010,209215,
227029,209191,
227026,209204,
227061,209210,
227054,209218,
227048,209207,
227031,209221,
227019,209166,
227014,209199,
227050,209190,
227038,209212,
227063,209199,
227050,209208,
227084,209189,
227048,209203,
227034,209176,
226991,209160,
226996,209128,
226986,209158,
226971,209138,
226949,209145,
226944,209113,
226959,209149,
226996,209141,
226995,209157,
226996,209140,
227046,209164,
227055,209179,
227076,209220,
227083,209207,
227114,209240,
227146,209226,
227204,209257,
227205,209250,
227233,209266,
227245,209249,
227267,209255,
227290,209270,
227318,209290,
227304,209265,
227329,209285,
227324,209260,
227363,209307,
227364,209277,
227364,209299,
227325,209268,
227385,209280,
227395,209281,
227415,209320,
227390,209283,
227425,209295,
227418,209298,
227427,209301,
227413,209276,
227462,209307,
227463,209289,
227517,209341,
227499,209307,
227541,209352,
227539,209331,
227623,209359,
227596,209363,
227677,209409,
227674,209386,
227752,209415,
227765,209421,
227776,209434,
227752,209407,
227776,209416,
227657,209345,
227529,209297,
227277,209161,
227099,209104,
226856,208976,
226722,208944,
226555,208859,
226466,208825,
226336,208770,
226342,208777,
226303,208754,
226333,208776,
226297,208753,
226324,208780,
226325,208758,
226360,208807,
226326,208751,
226346,208780,
226342,208741,
226365,208781,
226302,208744,
226296,208750,
226253,208689,
226294,208740,
226263,208713,
226305,208740,
226309,208703,
226334,208751,
226274,208709,
226294,208718,
226280,208664,
226286,208724,
226211,208672,
226223,208698,
226209,208651,
226228,208692,
226167,208631,
226196,208656,
226172,208613,
226232,208652,
226190,208652,
226240,208663,
226211,208644,
226291,208674,
226255,208665,
226322,208706,
226310,208680,
226360,208723,
226369,208693,
226431,208748,
226386,208721,
226444,208750,
226419,208704,
226497,208754,
226449,208739,
226532,208780,
226478,208745,
226560,208782,
226533,208781,
226588,208803,
226524,208744,
226590,208788,
226556,208763,
226599,208817,
226559,208766,
226619,208788,
226600,208787,
226672,208821,
226628,208788,
226690,208814,
226667,208805,
226752,208848,
226706,208834,
226782,208871,
226797,208857,
226870,208901,
226837,208872,
226923,208916,
226932,208931,
226992,208960,
226963,208926,
227036,208963,
226983,208914,
226929,208911,
226704,208792,
226516,208698,
226250,208571,
226111,208521,
225831,208394,
225729,208361,
225556,208253,
225531,208275,
225403,208213,
225409,208223,
225336,208186,
225407,208223,
225352,208201,
225411,208227,
225375,208184,
225436,208214,
225344,208202,
225383,208207,
225300,208152,
225307,208154,
225233,208118,
225255,208135,
225147,208076,
225214,208105,
225184,208068,
225244,208144,
225181,208087,
225223,208086,
225195,208064,
225229,208105,
225142,208044,
225173,208076,
225110,208027,
225135,208062,
225084,208029,
225121,208065,
225074,208012,
225134,208049,
225091,208027,
225139,208065,
225099,208002,
225188,208062,
225150,208051,
225184,208082,
225159,208027,
225242,208094,
225202,208072,
225279,208116,
225233,208083,
225312,208103,
225282,208113,
225361,208148,
225329,208114,
225399,208165,
225368,208163,
225444,208194,
225399,208142,
225477,208190,
225455,208185,
225516,208215,
225475,208195,
225551,208232,
225526,208234,
225597,208269,
225567,208224,
225662,208280,
225629,208281,
225712,208321,
225682,208299,
225766,208348,
225753,208329,
225846,208387,
225822,208370,
225895,208408,
225875,208379,
225961,208437,
225935,208436,
226017,208466,
226008,208450,
226118,208507,
226066,208488,
226131,208521,
226129,208493,
226206,208555,
226175,208509,
226246,208572,
226219,208543,
226308,208594,
226268,208566,
226356,208604,
226377,208606,
226455,208659,
226429,208639,
226487,208667,
226432,208631,
226359,208617,
226089,208461,
225884,208396,
225601,208257,
225455,208186,
225206,208108,
225096,208046,
224938,207985,
224938,208014,
224827,207966,
224846,207975,
224839,207971,
224914,208032,
224883,208012,
224928,208039,
224922,208034,
224968,208067,
224915,208044,
224937,208049,
224903,208025,
224899,208031,
224841,207983,
224854,208011,
224800,207989,
224841,208013,
224819,207996,
224864,208021,
224863,208039,
224905,208028,
224836,208001,
224889,208034,
224830,208002,
224836,207975,
224760,207960,
224804,207963,
224778,207957,
224791,207979,
224778,207943,
224846,207983,
224789,207966,
224836,207995,
224830,207954,
224876,208020,
224853,208006,
224904,208048,
224901,208030,
224955,208078,
224928,208052,
225009,208084,
225012,208091,
225061,208119,
225044,208089,
225130,208132,
225109,208136,
225147,208173,
225137,208140,
225209,208163,
225185,208183,
225221,208200,
225211,208195,
225264,208211,
225254,208212,
225297,208241,
225292,208217,
225358,208254,
225347,208248,
225379,208260,
225365,208249,
225473,208295,
225450,208303,
225482,208333,
225493,208305,
225554,208368,
225535,208351,
225587,208362,
225590,208366,
225647,208414,
225653,208397,
225702,208414,
225705,208426,
225768,208453,
225743,208455,
225812,208463,
225834,208477,
225870,208498,
225865,208485,
225935,208536,
225896,208516,
225913,208512,
225770,208421,
225657,208358,
225386,208251,
225205,208166,
224952,208039,
224851,207999,
224635,207927,
224544,207898,
224423,207815,
224415,207852,
224333,207830,
224340,207835,
224339,207809,
224384,207841,
224342,207808,
224341,207805,
224303,207764,
224304,207790,
224242,207752,
224220,207741,
224159,207695,
224170,207710,
224105,207705,
224107,207677,
224094,207659,
224150,207696,
224116,207674,
224140,207686,
224122,207651,
224139,207680,
224076,207647,
224078,207643,
224028,207617,
224034,207626,
223991,207600,
223992,207585,
223954,207580,
224004,207583,
223989,207613,
224014,207600,
223990,207583,
224048,207597,
224016,207597,
224058,207600,
224059,207616,
224099,207622,
224087,207637,
224153,207645,
224155,207669,
224160,207660,
224198,207659,
224237,207652,
224183,207660,
224253,207687,
224246,207705,
224288,207703,
224312,207733,
224321,207728,
224313,207733,
224383,207743,
224340,207747,
224370,207728,
224402,207769,
224405,207754,
224431,207765,
224451,207760,
224473,207782,
224498,207800,
224498,207803,
224566,207816,
224533,207826,
224583,207800,
224617,207868,
224645,207844,
224656,207883,
224700,207870,
224721,207883,
224763,207887,
224775,207918,
224784,207923,
224798,207939,
224837,207943,
224843,207960,
224913,207954,
224916,207995,
224935,207982,
224992,208018,
225008,208009,
225019,208040,
225076,208037,
225098,208102,
225132,208072,
225186,208132,
225216,208104,
225237,208118,
225257,208128,
225202,208116,
225061,208017,
224873,207967,
224632,207817,
224445,207772,
224201,207656,
224039,207582,
223868,207517,
223770,207473,
223686,207446,
223647,207424,
223649,207408,
223624,207430,
223632,207404,
223649,207441,
223612,207407,
223660,207466,
223583,207425,
223620,207408,
223559,207392,
223533,207382,
223470,207347,
223440,207326,
223397,207300,
223415,207325,
223380,207298,
223424,207343,
223408,207312,
223461,207367,
223416,207332,
223460,207357,
223425,207338,
223425,207333,
223395,207323,
223409,207311,
223389,207303,
223395,207330,
223380,207299,
223418,207341,
223387,207301,
223437,207360,
223414,207325,
223482,207356,
223445,207347,
223495,207374,
223501,207369,
223541,207395,
223542,207385,
223589,207436,
223598,207418,
223644,207469,
223648,207445,
223701,207499,
223700,207468,
223780,207516,
223766,207507,
223827,207530,
223818,207530,
223866,207555,
223884,207575,
223930,207605,
223923,207584,
223994,207635,
224005,207625,
224066,207694,
224067,207676,
224150,207707,
224144,207691,
224200,207730,
224213,207739,
224282,207783,
224302,207803,
224370,207844,
224396,207825,
224463,207895,
224502,207867,
224556,207940,
224547,207907,
224652,207958,
224608,207937,
224704,207992,
224706,207999,
224761,208047,
224798,208041,
224857,208075,
224867,208073,
224925,208107,
224908,208092,
224979,208147,
224956,208110,
225056,208200,
225048,208171,
225150,208221,
225130,208212,
225212,208255,
225227,208263,
225306,208316,
225353,208303,
225420,208377,
225412,208334,
225481,208402,
225430,208339,
225417,208360,
225215,208248,
225087,208195,
224863,208108,
224745,208053,
224588,207977,
224485,207972,
224416,207914,
224372,207944,
224331,207886,
224359,207970,
224322,207914,
224427,207975,
224375,207942,
224451,207993,
224416,207984,
224467,208017,
224450,207995,
224466,208011,
224402,207966,
224426,207992,
224364,207939,
224402,207981,
224347,207937,
224419,207981,
224403,207965,
224455,208002,
224437,208004,
224496,208035,
224469,208021,
224510,208048,
224488,207997,
224523,208030,
224456,207973,
224535,208061,
224472,208005,
224583,208061,
224515,208025,
224595,208055,
224556,208064,
224635,208090,
224605,208085,
224673,208123,
224665,208121,
224736,208154,
224728,208136,
224809,208183,
224759,208157,
224896,208210,
224843,208204,
224942,208255,
224915,208246,
224996,208291,
224987,208278,
225065,208312,
225081,208294,
225135,208338,
225114,208317,
225186,208361,
225152,208356,
225261,208427,
225199,208389,
225309,208417,
225283,208437,
225382,208464,
225371,208478,
225443,208503,
225438,208493,
225533,208544,
225520,208530,
225600,208607,
225577,208575,
225700,208652,
225675,208632,
225775,208673,
225728,208658,
225822,208682,
225804,208683,
225864,208716,
225883,208718,
225945,208751,
225905,208722,
225978,208755,
225956,208734,
226052,208807,
226022,208779,
226111,208812,
226099,208801,
226185,208832,
226194,208839,
226222,208865,
226244,208861,
226278,208915,
226294,208895,
226322,208924,
226275,208875,
226240,208871,
226035,208752,
225951,208702,
225709,208601,
225632,208581,
225470,208517,
225391,208503,
225304,208462,
225318,208474,
225252,208431,
225276,208507,
225266,208453,
225341,208536,
225316,208497,
225412,208530,
225380,208510,
225420,208535,
225389,208503,
225414,208532,
225342,208481,
225386,208522,
225343,208474,
225366,208510,
225322,208501,
225393,208504,
225382,208512,
225423,208538,
225432,208507,
225452,208548,
225425,208517,
225451,208533,
225404,208519,
225465,208579,
225408,208530,
225453,208542,
225380,208503,
225450,208537,
225421,208533,
225484,208568,
225479,208538,
225534,208578,
225529,208569,
225572,208620,
225527,208575,
225603,208612,
225601,208615,
225655,208640,
225664,208642,
225695,208653,
225680,208654,
225783,208705,
225735,208670,
225799,208705,
225799,208700,
225851,208729,
225849,208699,
225892,208762,
225871,208727,
225935,208785,
225897,208748,
226001,208783,
225944,208759,
226011,208790,
226004,208806,
226062,208830,
226056,208816,
226124,208853,
226119,208835,
226178,208895,
226138,208852,
226227,208927,
226184,208890,
226300,208947,
226256,208918,
226341,208956,
226320,208948,
226372,208961,
226381,208991,
226440,209005,
226425,209001,
226505,209025,
226494,209003,
226560,209056,
226540,209040,
226612,209078,
226575,209078,
226618,209069,
226647,209102,
226687,209117,
226669,209102,
226735,209157,
226746,209144,
226844,209187,
226820,209154,
226865,209184,
226835,209174,
226827,209168,
226685,209101,
226513,209024,
226301,208917,
226155,208866,
225945,208767,
225868,208741,
225689,208670,
225663,208665,
225569,208634,
225602,208649,
225564,208629,
225600,208650,
225599,208657,
225639,208688,
225649,208653,
225691,208708,
225655,208670,
225706,208676,
225654,208681,
225650,208661,
225626,208662,
225597,208655,
225558,208610,
225573,208635,
225549,208614,
225640,208674,
225600,208651,
225686,208682,
225644,208666,
225696,208678,
225641,208663,
225681,208678,
225641,208663,
225636,208692,
225650,208657,
225682,208679,
225651,208654,
225707,208704,
225686,208699,
225776,208721,
225755,208702,
225791,208733,
225800,208731,
225839,208767,
225855,208763,
225887,208796,
225911,208783,
225974,208854,
225962,208807,
226047,208890,
226043,208875,
226116,208922,
226120,208904,
226180,208940,
226190,208932,
226215,208974,
226242,208960,
226270,209000,
226292,208993,
226326,209037,
226332,209017,
226399,209072,
226404,209066,
226487,209090,
226482,209069,
226516,209095,
226526,209108,
226569,209139,
226598,209151,
226630,209160,
226645,209163,
226707,209221,
226703,209204,
226777,209256,
226760,209240,
226838,209267,
226848,209278,
226899,209291,
226917,209325,
226952,209319,
226970,209331,
227008,209342,
226994,209347,
227047,209391,
227041,209351,
227117,209407,
227088,209401,
227185,209412,
227185,209439,
227245,209444,
227251,209487,
227307,209489,
227324,209503,
227358,209536,
227381,209524,
227423,209565,
227356,209520,
227307,209496,
227066,209372,
226916,209300,
226680,209205,
226578,209127,
226393,209058,
226326,209056,
226250,209020,
226221,209034,
226189,209006,
226237,209042,
226212,209000,
226276,209070,
226262,209058,
226351,209097,
226348,209082,
226400,209103,
226388,209112,
226406,209130,
226398,209127,
226407,209121,
226378,209100,
226402,209130,
226364,209104,
226431,209136,
226405,209125,
226502,209158,
226472,209145,
226485,209158,
226503,209165,
226498,209165,
226509,209150,
226481,209151,
226495,209145,
226485,209164,
226488,209140,
226528,209194,
226515,209181,
226569,209171,
226551,209183,
226594,209202,
226579,209232,
226652,209233,
226680,209250,
226726,209269,
226733,209279,
226805,209303,
226797,209324,
226845,209353,
226854,209337,
226944,209361,
226914,209369,
226976,209383,
226979,209392,
227009,209388,
227025,209393,
227057,209423,
227082,209437,
227090,209453,
227085,209433,
227134,209472,
227129,209474,
227210,209472,
227189,209479,
227209,209469,
227208,209511,
227239,209480,
227259,209536,
227287,209511,
227286,209527,
227349,209539,
227334,209530,
227385,209557,
227374,209557,
227432,209552,
227424,209567,
227452,209560,
227462,209599,
227494,209585,
227514,209617,
227536,209598,
227571,209627,
227613,209620,
227615,209647,
227661,209654,
227660,209676,
227722,209652,
227700,209661,
227668,209616,
227533,209586,
227331,209461,
227153,209408,
226947,209297,
226796,209228,
226650,209165,
226544,209126,
226485,209116,
226412,209084,
226422,209062,
226416,209085,
226445,209076,
226456,209120,
226480,209103,
226522,209158,
226513,209144,
226548,209153,
226527,209121,
226525,209127,
226500,209114,
226493,209096,
226486,209087,
226473,209098,
226480,209084,
226491,209102,
226500,209080,
226535,209117,
226506,209087,
226529,209098,
226495,209094,
226501,209085,
226476,209069,
226466,209055,
226482,209052,
226476,209065,
226484,209021,
226478,209082,
226474,209044,
226522,209094,
226506,209062,
226568,209103,
226552,209085,
226600,209100,
226602,209117,
226623,209114,
226661,209116,
226681,209155,
226694,209130,
226732,209189,
226728,209140,
226807,209218,
226790,209171,
226839,209202,
226836,209190,
226870,209204,
226877,209235,
226902,209222,
226901,209227,
226941,209251,
226945,209229,
226976,209253,
226943,209229,
227020,209277,
226978,209251,
227059,209279,
227020,209284,
227070,209288,
227087,209293,
227120,209315,
227154,209312,
227197,209339,
227175,209311,
227242,209374,
227215,209337,
227279,209386,
227252,209345,
227324,209390,
227311,209379,
227392,209405,
227365,209425,
227430,209446,
227435,209421,
227498,209448,
227500,209437,
227567,209495,
227524,209470,
227626,209514,
227564,209475,
227582,209480,
227408,209383,
227210,209286,
226968,209186,
226775,209109,
226589,209008,
226451,208959,
226274,208854,
226226,208873,
226123,208801,
226189,208837,
226115,208805,
226165,208839,
226138,208823,
226201,208859,
226192,208865,
226242,208869,
226218,208851,
226264,208872,
226231,208824,
226225,208860,
226171,208788,
226190,208823,
226106,208769,
226182,208811,
226133,208790,
226178,208825,
226196,208824,
226211,208850,
226218,208801,
226246,208847,
226177,208810,
226232,208854,
226166,208782,
226192,208846,
226149,208790,
226213,208832,
226153,208799,
226208,208819,
226191,208806,
226223,208835,
226243,208804,
226282,208866,
226268,208826,
226300,208880,
226293,208863,
226382,208929,
226348,208890,
226432,208951,
226422,208923,
226506,208977,
226477,208928,
226549,208977,
226546,208968,
226588,209018,
226601,209024,
226658,209047,
226665,209032,
226706,209074,
226675,209023,
226741,209078,
226691,209056,
226778,209103,
226752,209062,
226814,209091,
226789,209076,
226835,209117,
226822,209118,
226865,209139,
226849,209093,
226913,209145,
226860,209102,
226969,209185,
226926,209131,
227037,209168,
226980,209164,
227076,209197,
227046,209192,
227113,209232,
227106,209225,
227160,209264,
227160,209225,
227222,209263,
227187,209247,
227255,209307,
227218,209257,
227317,209321,
227304,209280,
227388,209333,
227356,209326,
227446,209373,
227437,209385,
227516,209425,
227511,209394,
227583,209459,
227554,209409,
227609,209448,
227459,209341,
227348,209296,
227036,209140,
226878,209079,
226606,208979,
226490,208935,
226318,208852,
226263,208846,
226164,208790,
226169,208808,
226095,208759,
226156,208828,
226119,208810,
226242,208845,
226171,208808,
226260,208842,
226217,208832,
226269,208844,
226234,208816,
226224,208824,
226166,208766,
226176,208806,
226106,208756,
226179,208787,
226119,208739,
226209,208786,
226156,208758,
226212,208793,
226173,208752,
226187,208776,
226111,208732,
226160,208765,
226084,208705,
226115,208751,
226046,208683,
226112,208732,
226034,208696,
226111,208728,
226060,208688,
226116,208724,
226097,208726,
226141,208746,
226139,208711,
226198,208769,
226163,208722,
226227,208783,
226200,208742,
226322,208824,
226278,208774,
226363,208810,
226319,208809,
226384,208843,
226384,208838,
226434,208883,
226452,208849,
226500,208880,
226475,208848,
226523,208898,
226482,208861,
226556,208940,
226536,208892,
226613,208935,
226571,208926,
226638,208945,
226603,208948,
226654,208970,
226668,208925,
226698,208981,
226686,208940,
226745,209009,
226712,208965,
226814,209041,
226770,208986,
226848,209043,
226801,209014,
226887,209035,
226858,209043,
226910,209062,
226890,209021,
226954,209053,
226934,209017,
226986,209101,
226978,209037,
227073,209112,
227037,209080,
227123,209131,
227103,209107,
227159,209155,
227171,209155,
227233,209179,
227223,209147,
227212,209165,
227093,209051,
226953,209028,
226678,208876,
226532,208795,
226279,208689,
226148,208630,
225949,208568,
225854,208518,
225742,208473,
225747,208479,
225664,208455,
225687,208481,
225694,208436,
225724,208470,
225677,208416,
225720,208487,
225667,208429,
225748,208471,
225670,208412,
225687,208422,
225605,208382,
225617,208378,
225573,208367,
225594,208366,
225561,208341,
225616,208377,
225568,208346,
225631,208391,
225554,208339,
225615,208372,
225513,208333,
225556,208343,
225476,208312,
225517,208318,
225447,208286,
225483,208285,
225448,208262,
225464,208270,
225416,208236,
225467,208280,
225424,208252,
225510,208293,
225449,208250,
225536,208278,
225499,208272,
225595,208310,
225604,208322,
225662,208364,
225683,208377,
225748,208427,
225751,208404,
225804,208459,
225770,208433,
225860,208494,
225814,208482,
225918,208524,
225864,208516,
225929,208540,
225913,208542,
225944,208553,
225963,208552,
225990,208556,
225969,208530,
226012,208573,
225990,208537,
226052,208584,
226013,208557,
226067,208598,
226051,208572,
226128,208599,
226106,208600,
226161,208603,
226151,208600,
226236,208637,
226221,208615,
226275,208687,
226264,208644,
226321,208696,
226310,208659,
226388,208718,
226349,208695,
226443,208709,
226418,208698,
226510,208731,
226477,208706,
226532,208760,
226516,208743,
226565,208770,
226580,208757,
226640,208798,
226622,208801,
226681,208815,
226717,208808,
226736,208817,
226630,208761,
226500,208703,
226209,208538,
226004,208472,
225678,208302,
225523,208224,
225295,208135,
225166,208080,
225033,208028,
224975,207990,
224886,207955,
224891,207959,
224857,207931,
224897,207961,
224852,207936,
224943,207966,
224894,207960,
224939,207973,
224887,207962,
224914,207950,
224851,207945,
224841,207960,
224801,207898,
224798,207905,
224744,207874,
224803,207935,
224773,207916,
224870,207968,
224832,207940,
224867,207977,
224843,207946,
224877,207966,
224859,207963,

