
220975,211259,
221126,211362,
221027,211306,
221168,211388,
221064,211312,
221186,211351,
221040,211268,
221158,211319,
221039,211269,
221181,211318,
221073,211260,
221214,211325,
221100,211287,
221273,211354,
221161,211330,
221355,211386,
221219,211342,
221385,211395,
221227,211345,
221384,211393,
221237,211328,
221423,211384,
221265,211355,
221466,211405,
221322,211371,
221496,211414,
221359,211366,
221482,211410,
221230,211254,
221113,211131,
220433,210769,
219484,210218,
217449,209254,
215376,208343,
214041,207804,
213759,207689,
213602,207660,
214009,207861,
214345,208084,
215188,208485,
215909,208848,
216987,209315,
217664,209638,
218469,209982,
218810,210148,
219284,210343,
219373,210402,
219681,210527,
219665,210542,
219913,210616,
219873,210616,
220102,210678,
220049,210688,
220254,210752,
220179,210738,
220318,210795,
220206,210762,
220292,210775,
220128,210731,
220174,210732,
220006,210650,
220075,210656,
219929,210608,
220048,210640,
219970,210622,
220132,210691,
220087,210692,
220263,210736,
220231,210738,
220384,210764,
220346,210789,
220515,210826,
220478,210855,
220661,210890,
220612,210931,
220764,210932,
220694,210990,
220848,210982,
220763,210998,
220890,210994,
220807,211060,
220940,211013,
220849,211048,
220967,211012,
220842,211043,
220953,210992,
220876,211038,
220998,211020,
220927,211072,
221063,211060,
221001,211126,
221127,211109,
221064,211165,
221164,211141,
221103,211190,
221211,211156,
221140,211210,
221258,211183,
221184,211240,
221308,211216,
221230,211237,
221325,211198,
221255,211233,
221352,211215,
221291,211245,
221373,211214,
221318,211279,
221447,211261,
221392,211318,
221456,211266,
221399,211311,
221483,211267,
221433,211322,
221500,211283,
221451,211336,
221502,211301,
221467,211341,
221510,211286,
221479,211335,
221524,211264,
221493,211331,
221536,211251,
221508,211340,
221471,211238,
221212,211130,
220466,210608,
218559,209700,
215403,208222,
213474,207394,
212421,206896,
211714,206591,
210912,206182,
210499,206088,
210270,205973,
210179,205994,
210304,206065,
210756,206364,
211196,206568,
211730,206883,
212178,207058,
212647,207343,
212958,207433,
213239,207605,
213216,207554,
213131,207531,
212845,207328,
212602,207269,
212356,207085,
212333,207142,
212285,207062,
212305,207118,
212114,206985,
211913,206903,
211506,206645,
211155,206483,
210688,206218,
210363,206119,
210075,205922,
209993,205926,
209852,205837,
209937,205935,
209909,205915,
210075,206039,
210094,206031,
210291,206148,
210335,206163,
210547,206301,
210620,206309,
210917,206496,
211059,206545,
211401,206738,
211535,206754,
211862,206943,
211965,206989,
212234,207128,
212256,207102,
212510,207265,
212607,207310,
212898,207472,
212985,207505,
213294,207668,
213364,207668,
213617,207818,
213578,207773,
213736,207897,
213654,207812,
213821,207909,
213729,207838,
213826,207910,
213706,207820,
213808,207895,
213706,207795,
213806,207901,
213654,207788,
213764,207892,
213616,207766,
213697,207833,
213563,207741,
213614,207798,
213474,207687,
213554,207743,
213390,207619,
213460,207697,
213248,207556,
213237,207578,
212964,207414,
212877,207419,
212555,207228,
212482,207239,
212206,207062,
212183,207071,
211965,206920,
212005,207005,
211854,206879,
211932,206948,
211788,206862,
211864,206935,
211654,206787,
211451,206678,
210573,206151,
209453,205546,
208032,204787,
207113,204340,
206243,203881,
205864,203745,
205378,203500,
205270,203493,
205036,203363,
205132,203444,
205000,203408,
205241,203564,
205209,203555,
205529,203755,
205544,203760,
205885,203948,
205897,203936,
206203,204108,
206128,204055,
206393,204197,
206280,204120,
206485,204222,
206359,204154,
206596,204298,
206550,204263,
206866,204434,
206794,204374,
207007,204481,
206778,204364,
206931,204452,
206675,204288,
206815,204355,
206583,204237,
206706,204317,
206536,204230,
206721,204322,
206573,204234,
206838,204398,
206779,204385,
207099,204548,
207117,204562,
207491,204737,
207514,204759,
207863,204947,
207894,204965,
208271,205163,
208343,205209,
208789,205432,
208908,205474,
209349,205694,
209455,205768,
209888,205959,
209905,205982,
210248,206143,
210261,206141,
210540,206290,
210493,206271,
210791,206424,
210785,206422,
211125,206575,
211097,206581,
211442,206746,
211400,206709,
211682,206837,
211563,206777,
211755,206871,
211655,206820,
211989,206979,
211963,206957,
212286,207125,
212218,207099,
212574,207258,
212624,207277,
213065,207503,
213131,207531,
213478,207715,
213495,207688,
213829,207877,
213754,207810,
214003,207976,
213919,207904,
214254,208103,
214261,208072,
214633,208292,
214672,208273,
215047,208460,
215077,208442,
215436,208639,
215419,208611,
215783,208791,
215803,208797,
216238,209016,
216315,209002,
216702,209203,
216634,209125,
216517,209058,
215166,208284,
213454,207446,
211293,206306,
209167,205214,
206699,203963,
205668,203502,
205052,203217,
205019,203250,
204829,203174,
205072,203340,
205108,203355,
205492,203595,
205653,203710,
206196,203992,
206456,204134,
207038,204448,
207226,204559,
207646,204757,
207668,204754,
207906,204885,
207767,204796,
207942,204882,
207803,204845,
208117,204972,
208104,204989,
208418,205093,
208252,205040,
208403,205074,
208087,204934,
208112,204908,
207697,204718,
207713,204705,
207380,204567,
207498,204585,
207237,204478,
207426,204545,
207291,204534,
207580,204643,
207517,204662,
207851,204792,
207813,204805,
208201,204969,
208211,205017,
208564,205179,
208522,205158,
208820,205287,
208791,205298,
209194,205489,
209264,205550,
209694,205745,
209695,205771,
210037,205906,
210013,205930,
210329,206049,
210235,206019,
210437,206109,
210248,206029,
210426,206091,
210318,206047,
210590,206165,
210537,206166,
210784,206260,
210689,206232,
210920,206331,
210860,206321,
211111,206421,
211001,206404,
211249,206475,
211173,206466,
211420,206556,
211334,206529,
211506,206605,
211416,206565,
211636,206687,
211604,206660,
211850,206791,
211829,206774,
212104,206894,
212116,206928,
212503,207128,
212597,207175,
212977,207353,
213061,207369,
213417,207563,
213514,207589,
213846,207747,
213797,207671,
213687,207601,
212644,207017,
211187,206210,
208807,204944,
206858,203965,
205483,203279,
204989,203066,
204519,202843,
204476,202871,
204320,202782,
204547,202945,
204591,202978,
204997,203199,
205174,203302,
205674,203574,
205881,203693,
206319,203935,
206470,203986,
206778,204157,
206790,204146,
206951,204236,
206836,204161,
207005,204241,
206964,204245,
207204,204371,
207248,204376,
207487,204498,
207348,204413,
207343,204395,
207091,204257,
207066,204241,
206803,204112,
206776,204092,
206533,203977,
206606,204004,
206525,203974,
206742,204077,
206745,204093,
207022,204207,
207068,204275,
207423,204417,
207488,204465,
207790,204604,
207784,204634,
208137,204799,
208242,204890,
208660,205074,
208731,205137,
209084,205276,
209146,205319,
209423,205442,
209406,205445,
209639,205539,
209537,205496,
209795,205602,
209767,205618,
210041,205703,
209997,205719,
210221,205831,
210119,205798,
210296,205846,
210191,205825,
210372,205875,
210269,205852,
210459,205927,
210406,205921,
210654,206032,
210671,206048,
210939,206170,
210940,206182,
211166,206249,
211121,206247,
211333,206349,
211351,206371,
211604,206455,
211597,206493,
211809,206578,
211805,206577,
212008,206656,
211990,206679,
212163,206750,
212075,206733,
212316,206822,
212396,206872,
212704,206994,
212803,207090,
213098,207184,
213169,207277,
213481,207383,
213558,207466,
213816,207548,
213824,207586,
213844,207505,
213155,207169,
211888,206398,
209604,205236,
207166,203867,
205320,203028,
204576,202604,
204027,202420,
203879,202301,
203690,202325,
203827,202317,
203852,202431,
204156,202532,
204331,202711,
204695,202850,
204937,203057,
205329,203185,
205485,203354,
205740,203401,
205745,203463,
205817,203418,
205703,203433,
205714,203360,
205592,203346,
205691,203350,
205780,203479,
206085,203570,
206210,203706,
206410,203723,
206374,203774,
206436,203732,
206310,203723,
206284,203632,
206143,203618,
206156,203551,
206107,203601,
206179,203578,
206158,203634,
206249,203626,
206280,203707,
206426,203719,
206537,203836,
206695,203848,
206800,203962,
206935,203994,
207125,204149,
207341,204211,
207603,204401,
207813,204428,
208018,204596,
208168,204619,
208346,204761,
208483,204760,
208611,204892,
208670,204864,
208804,204989,
208886,204974,
209145,205147,
209300,205171,
209478,205320,
209511,205286,
209658,205383,
209677,205363,
209793,205467,
209805,205438,
209951,205548,
210024,205531,
210180,205652,
210261,205661,
210412,205743,
210434,205738,
210638,205861,
210715,205880,
210948,206040,
211048,206032,
211221,206161,
211301,206156,
211503,206286,
211532,206277,
211708,206395,
211780,206384,
212032,206536,
212119,206565,
212341,206704,
212434,206723,
212693,206860,
212776,206884,
213014,207026,
213083,207032,
213313,207138,
213345,207151,
213547,207264,
213613,207259,
213862,207394,
213871,207410,
214106,207513,
214167,207499,
214433,207671,
214493,207669,
214791,207821,
214897,207833,
215257,208040,
215424,208098,
215782,208303,
215883,208284,
216044,208407,
215768,208186,
214902,207742,
212917,206643,
210850,205618,
208066,204062,
205608,202913,
204347,202272,
203994,202168,
203702,202000,
203772,202123,
203763,202100,
204060,202313,
204219,202375,
204688,202692,
204963,202786,
205428,203092,
205684,203166,
206073,203401,
206128,203382,
206292,203502,
206162,203383,
206168,203414,
205955,203269,
206019,203348,
205992,203293,
206258,203472,
206345,203511,
206648,203694,
206665,203646,
206808,203758,
206717,203653,
206766,203706,
206531,203576,
206597,203637,
206441,203529,
206559,203603,
206432,203523,
206569,203626,
206506,203557,
206766,203728,
206751,203694,
207021,203846,
207018,203834,
207300,203995,
207324,203986,
207641,204177,
207672,204173,
208026,204379,
208069,204389,
208448,204598,
208494,204596,
208822,204772,
208799,204759,
209106,204910,
209094,204883,
209379,205055,
209337,205021,
209664,205164,
209670,205160,
209940,205331,
209869,205277,
210110,205393,
210023,205346,
210308,205479,
210263,205454,
210515,205595,
210469,205572,
210772,205701,
210723,205690,
210983,205833,
210944,205769,
211216,205914,
211180,205902,
211466,206042,
211438,206032,
211790,206208,
211815,206225,
212167,206404,
212188,206391,
212532,206575,
212523,206550,
212835,206702,
212835,206713,
213180,206872,
213180,206881,
213525,207029,
213505,207021,
213804,207162,
213743,207153,
214032,207273,
214001,207243,
214302,207399,
214267,207380,
214601,207538,
214581,207499,
214891,207681,
214916,207657,
215253,207839,
215293,207823,
215722,208063,
215784,208046,
216125,208234,
216074,208158,
216103,208182,
215036,207548,
213222,206651,
210957,205422,
208703,204230,
205993,202840,
204836,202360,
204205,202042,
204174,202077,
204039,202008,
204353,202231,
204468,202295,
204993,202616,
205265,202733,
205857,203107,
206176,203263,
206764,203582,
206923,203643,
207278,203832,
207248,203782,
207428,203889,
207297,203782,
207450,203890,
207368,203827,
207639,204001,
207677,203995,
207974,204167,
207893,204113,
208000,204144,
207737,203989,
207711,204007,
207378,203818,
207374,203797,
207097,203670,
207191,203708,
207016,203641,
207197,203737,
207096,203709,
207386,203829,
207364,203836,
207755,204033,
207807,204070,
208191,204237,
208229,204286,
208639,204462,
208638,204510,
209047,204683,
209076,204717,
209503,204894,
209566,204965,
209999,205133,
209992,205169,
210347,205336,
210312,205326,
210652,205484,
210631,205484,
211004,205643,
211006,205672,
211369,205826,
211326,205819,
211656,205949,
211586,205932,
211868,206056,
211835,206057,
212205,206217,
212243,206236,
212674,206427,
212725,206471,
213139,206664,
213216,206697,
213628,206893,
213650,206917,
214029,207110,
214066,207109,
214440,207272,
214490,207320,
214840,207471,
214865,207499,
215241,207654,
215248,207667,
215585,207803,
215569,207807,
215837,207911,
215801,207903,
216067,207995,
216006,207989,
216294,208097,
216218,208060,
216486,208181,
216446,208160,
216703,208277,
216684,208252,
216948,208381,
216924,208371,
217177,208488,
217177,208476,
217441,208596,
217434,208592,
217680,208710,
217576,208640,
217452,208552,
216164,207806,
213577,206554,
211118,205299,
209091,204269,
206445,202903,
204994,202261,
204373,201961,
204351,202033,
204292,201995,
204621,202210,
204822,202330,
205360,202658,
205729,202851,
206357,203197,
206706,203378,
207258,203663,
207434,203747,
207769,203912,
207725,203865,
207814,203899,
207598,203778,
207601,203778,
207451,203712,
207647,203826,
207718,203879,
208068,204040,
208123,204078,
208309,204173,
208246,204129,
208277,204145,
208064,204015,
208029,203995,
207788,203874,
207785,203872,
207613,203785,
207724,203832,
207605,203810,
207765,203890,
207777,203937,
208048,204052,
208088,204085,
208402,204225,
208473,204301,
208842,204451,
208917,204521,
209266,204697,
209395,204771,
209796,204938,
209914,205046,
210310,205199,
210393,205273,
210754,205413,
210766,205432,
211041,205551,
211002,205564,
211272,205656,
211272,205683,
211576,205808,
211585,205833,
211882,205952,
211843,205948,
212058,206046,
212003,206021,
212223,206113,
212173,206119,
212443,206227,
212507,206269,
212841,206418,
212923,206501,
213279,206629,
213342,206683,
213641,206814,
213678,206851,
214019,206985,
214139,207062,
214577,207253,
214781,207369,
215219,207522,
215393,207631,
215763,207773,
215838,207837,
216135,207950,
216210,207988,
216452,208096,
216488,208115,
216704,208198,
216753,208234,
216960,208299,
216963,208321,
217165,208389,
217159,208417,
217335,208452,
217314,208469,
217475,208509,
217462,208528,
217648,208571,
217672,208627,
217891,208659,
217943,208746,
218149,208783,
218176,208842,
218383,208869,
218376,208920,
218469,208896,
218047,208702,
216862,207949,
213787,206534,
211423,205300,
209182,204245,
206914,202994,
205241,202309,
204778,202062,
204622,202082,
204773,202103,
204889,202289,
205294,202452,
205706,202744,
206295,202990,
206771,203343,
207388,203585,
207812,203876,
208265,204016,
208474,204196,
208658,204196,
208586,204225,
208580,204135,
208436,204118,
208465,204069,
208478,204165,
208757,204231,
208982,204420,
209284,204521,
209367,204622,
209443,204589,
209313,204563,
209289,204498,
209159,204481,
209131,204406,
209027,204434,
209066,204368,
209041,204443,
209133,204413,
209195,204533,
209326,204539,
209471,204663,
209671,204696,
209880,204882,
210121,204950,
210424,205142,
210671,205231,
210992,205447,
211303,205542,
211632,205737,
211875,205811,
212192,206016,
212391,206063,
212674,206258,
212829,206275,
213088,206443,
213276,206495,
213582,206688,
213775,206733,
214077,206914,
214281,206960,
214538,207140,
214662,207144,
214898,207287,
215005,207297,
215251,207467,
215376,207465,
215598,207611,
215722,207627,
215953,207767,
216077,207768,
216302,207918,
216441,207922,
216669,208061,
216770,208066,
217009,208199,
217123,208194,
217316,208324,
217355,208316,
217580,208448,
217638,208436,
217847,208547,
217885,208532,
218109,208654,
218115,208634,
218286,208751,
218265,208711,
218436,208811,
218385,208772,
218546,208851,
218478,208795,
218659,208897,
218643,208858,
218812,208953,
218766,208926,
218981,209030,
218954,209006,
219150,209118,
219114,209057,
219282,209181,
219189,209095,
219302,209174,
218953,208931,
218150,208461,
215665,207167,
212809,205910,
210897,204950,
209297,204193,
207511,203239,
206319,202746,
205853,202520,
206034,202711,
206192,202760,
206685,203110,
207154,203324,
207900,203773,
208441,204020,
209187,204473,
209676,204656,
210243,204998,
210491,205050,
210789,205239,
210785,205178,
210958,205290,
210910,205226,
211148,205382,
211268,205400,
211712,205657,
211901,205730,
212225,205919,
212169,205836,
212182,205883,
211913,205698,
211860,205706,
211606,205530,
211580,205565,
211352,205406,
211392,205470,
211294,205378,
211512,205538,
211520,205509,
211819,205711,
211926,205728,
212307,205953,
212498,206017,
212933,206259,
213116,206308,
213578,206585,
213828,206650,
214344,206936,
214559,206996,
215038,207237,
215163,207295,
215595,207498,
215685,207504,
216048,207699,
216073,207697,
216417,207858,
216401,207829,
216781,207989,
216773,207955,
217077,208112,
217012,208057,
217267,208188,
217204,208134,
217487,208284,
217417,208205,
217707,208334,
217623,208284,
217914,208421,
217813,208374,
218084,208493,
218011,208453,
218246,208570,
218156,208507,
218407,208645,
218330,208595,
218574,208721,
218480,208658,
218711,208765,
218573,208685,
218816,208797,
218688,208712,
218916,208840,
218808,208763,
219031,208881,
218962,208845,
219206,208974,
219100,208936,
219339,209042,
219196,208940,
219289,208985,
218805,208673,
217801,208109,
214906,206694,
212506,205622,
210944,204861,
209816,204290,
208431,203630,
207384,203131,
206750,202879,
206949,203028,
207087,203121,
207687,203464,
208103,203698,
208938,204129,
209467,204417,
210299,204838,
210718,205024,
211324,205333,
211440,205374,
211798,205553,
211670,205464,
211832,205568,
211711,205503,
212004,205665,
212055,205690,
212490,205904,
212565,205913,
212842,206065,
212673,205945,
212730,205991,
212421,205786,
212418,205816,
212160,205672,
212190,205719,
211952,205577,
212102,205698,
211991,205588,
212244,205774,
212260,205750,
212676,205995,
212803,206030,
213298,206314,
213488,206359,
213988,206630,
214144,206681,
214637,206950,
214811,206980,
215287,207228,
215417,207267,
215892,207510,
215995,207509,
216401,207724,
216466,207707,
216824,207904,
216862,207870,
217181,208049,
217157,208011,
217452,208177,
217405,208106,
217640,208261,
217586,208184,
217817,208297,
217736,208238,
217966,208370,
217915,208315,
218133,208438,
218085,208375,
218317,208510,
218251,208455,
218496,208572,
218416,208523,
218652,208641,
218542,208584,
218798,208705,
218679,208659,
218914,208757,
218784,208694,
219014,208794,
218907,208747,
219128,208841,
219001,208778,
219246,208906,
219123,208845,
219370,208939,
219219,208889,
219478,208982,
219338,208924,
219559,209009,
219356,208906,
219357,208863,
218332,208302,
216190,207192,
212947,205743,
211476,205032,
209943,204282,
208859,203735,
207408,203077,
206883,202852,
206644,202805,
207083,203023,
207285,203194,
207967,203530,
208354,203771,
209157,204168,
209602,204427,
210325,204766,
210569,204905,
211043,205097,
210955,205081,
211109,205127,
210838,204994,
210936,205035,
210796,205002,
211153,205161,
211270,205257,
211798,205483,
211914,205558,
212250,205683,
212137,205643,
212286,205692,
212058,205597,
212150,205623,
211928,205518,
212048,205556,
211869,205502,
212047,205591,
211978,205558,
212243,205687,
212299,205729,
212685,205903,
212800,205991,
213269,206194,
213447,206280,
213903,206494,
214056,206577,
214494,206760,
214621,206851,
215048,207021,
215199,207084,
215589,207257,
215714,207345,
216094,207480,
216155,207513,
216470,207640,
216456,207645,
216726,207756,
216711,207738,
216938,207862,
216952,207833,
217199,207960,
217217,207949,
217488,208078,
217462,208047,
217691,208172,
217649,208115,
217862,208238,
217811,208175,
218066,208308,
218049,208272,
218295,208390,
218249,208356,
218459,208489,
218386,208415,
218585,208537,
218495,208480,
218699,208568,
218627,208518,
218822,208630,
218734,208568,
218935,208673,
218861,208611,
219056,208711,
218974,208661,
219145,208741,
219057,208687,
219271,208777,
219182,208747,
219386,208834,
219292,208803,
219452,208884,
219343,208803,
219244,208707,
218221,208113,
215932,206975,
212913,205588,
211413,204907,
210036,204217,
208877,203714,
207632,203061,
207001,202842,
206845,202804,
207238,203045,
207552,203235,
208199,203564,
208653,203825,
209350,204183,
209779,204405,
210368,204687,
210619,204820,
210983,204988,
210977,204989,
211125,205043,
210925,204944,
211028,204964,
210980,204998,
211366,205179,
211592,205314,
212087,205524,
212204,205602,
212442,205704,
212316,205645,
212413,205660,
212148,205549,
212213,205569,
211995,205480,
212134,205501,
211979,205467,
212153,205539,
212075,205496,
212285,205601,
212254,205614,
212585,205746,
212658,205815,
213135,206023,
213363,206160,
213862,206361,
214019,206474,
214452,206647,
214606,206747,
215001,206928,
215081,206971,
215446,207123,
215558,207181,
215950,207341,
216068,207401,
216414,207532,
216493,207582,
216824,207686,
216828,207717,
217055,207807,
217058,207812,
217274,207883,
217253,207891,
217471,207966,
217443,207968,
217660,208026,
217582,208015,
217789,208085,
217782,208086,
217982,208168,
217976,208166,
218135,208226,
218105,208215,
218278,208259,
218202,208261,
218338,208273,
218252,208261,
218384,208298,
218314,208294,
218397,208291,
218344,208291,
218437,208318,
218354,208317,
218496,208336,
218475,208362,
218605,208380,
218559,208404,
218753,208437,
218729,208467,
218852,208471,
218635,208414,
218077,207999,
216009,207014,
213268,205680,
211491,204906,
210177,204190,
208714,203559,
207364,202820,
206442,202504,
206410,202458,
206490,202612,
206952,202799,
207380,203116,
208056,203400,
208605,203760,
209268,204038,
209682,204327,
210182,204481,
210404,204650,
210637,204680,
210597,204747,
210663,204691,
210601,204732,
210769,204741,
210883,204892,
211247,204997,
211386,205143,
211568,205135,
211448,205155,
211364,205029,
211073,204954,
210934,204794,
210647,204748,
210545,204611,
210372,204617,
210424,204568,
210421,204642,
210615,204684,
210795,204851,
211127,204942,
211345,205128,
211640,205211,
211884,205392,
212163,205470,
212420,205663,
212732,205742,
213031,205951,
213363,206051,
213670,206248,
213947,206340,
214228,206521,
214443,206532,
214660,206700,
214793,206708,
214982,206854,
215097,206850,
215249,206952,
215321,206954,
215491,207078,
215562,207071,
215726,207160,
215782,207157,
215930,207269,
215996,207235,
216131,207343,
216207,207334,
216369,207449,
216429,207419,
216596,207544,
216637,207535,
216821,207650,
216878,207620,
217056,207736,
217109,207719,
217283,207845,
217354,207816,
217520,207932,
217586,207902,
217778,208039,
217841,208008,
218060,208152,
218125,208142,
218338,208266,
218350,208239,
218416,208296,
217982,208001,
216741,207334,
213881,205943,
211833,205002,
210049,204099,
208400,203289,
206511,202343,
205783,202083,
205547,201965,
205717,202105,
205871,202181,
206304,202458,
206650,202637,
207227,202974,
207634,203181,
208230,203489,
208501,203610,
208898,203824,
208940,203817,
209085,203891,
208926,203788,
208953,203809,
208789,203719,
208984,203847,
209111,203907,
209555,204173,
209785,204245,
210097,204425,
210103,204374,
210190,204453,
209977,204298,
209974,204328,
209779,204189,
209818,204254,
209698,204150,
209840,204278,
209806,204221,
210023,204373,
210036,204357,
210300,204523,
210350,204515,
210722,204750,
210948,204815,
211407,205092,
211661,205164,
212107,205431,
212313,205497,
212704,205728,
212860,205750,
213265,205999,
213458,206033,
213855,206279,
214073,206330,
214470,206561,
214633,206577,
214920,206764,
214966,206745,
215220,206901,
215242,206875,
215495,207016,
215531,207003,
215786,207150,
215817,207118,
216076,207272,
216109,207248,
216372,207404,
216402,207376,
216661,207522,
216686,207478,
216956,207634,
216987,207606,
217221,207746,
217243,207706,
217507,207861,
217490,207819,
217720,207948,
217706,207898,
217955,208028,
217914,207990,
218142,208123,
218086,208073,
218310,208195,
218225,208137,
218451,208244,
218353,208171,
218580,208295,
218503,208222,
218761,208367,
218680,208303,
218923,208447,
218815,208374,
219045,208491,
218928,208416,
219095,208498,
218839,208356,
218555,208140,
216741,207159,
213674,205729,
211360,204638,
209904,203934,
208098,203046,
206600,202336,
205762,201985,
205884,202108,
205942,202163,
206483,202452,
206803,202652,
207541,203025,
207951,203256,
208646,203608,
208896,203739,
209411,203995,
209465,203998,
209718,204131,
209534,204010,
209601,204039,
209298,203885,
209417,203969,
209349,203928,
209743,204143,
209887,204215,
210335,204472,
210380,204475,
210671,204600,
210533,204522,
210672,204600,
210489,204486,
210601,204545,
210385,204437,
210536,204522,
210371,204441,
210594,204550,
210535,204516,
210847,204689,
210881,204704,
211337,204924,
211441,204974,
211944,205237,
212155,205324,
212677,205585,
212856,205661,
213354,205925,
213527,205994,
214055,206243,
214215,206299,
214712,206554,
214853,206577,
215310,206819,
215365,206821,
215762,207036,
215802,207019,
216170,207205,
216174,207178,
216498,207368,
216485,207303,
216806,207490,
216755,207430,
217050,207591,
216990,207529,
217259,207671,
217195,207594,
217443,207761,
217375,207676,
217637,207836,
217554,207767,
217828,207920,
217770,207839,
218038,207999,
217971,207914,
218227,208076,
218152,207995,
218397,208145,
218299,208060,
218542,208207,
218458,208122,
218663,208257,
218555,208178,
218767,208306,
218649,208222,
218865,208350,
218761,208268,
218961,208389,
218822,208308,
219022,208415,
218918,208327,
219095,208440,
218962,208353,
219167,208453,
219058,208383,
219253,208486,
219159,208416,
219345,208525,
219223,208452,
219403,208539,
219224,208442,
219150,208368,
218171,207785,
215920,206652,
212694,205207,
211306,204554,
209829,203830,
208780,203356,
207336,202649,
207033,202569,
206950,202605,
207530,202920,
207909,203157,
208825,203598,
209370,203932,
210281,204373,
210801,204635,
211557,204985,
211751,205107,
212208,205295,
212122,205259,
212323,205339,
212107,205253,
212330,205333,
212279,205344,
212704,205532,
212803,205594,
213189,205752,
213074,205714,
213243,205758,
212955,205646,
212992,205631,
212645,205478,
212707,205481,
212423,205375,
212549,205433,
212391,205372,
212653,205474,
212607,205487,
212966,205647,
213014,205689,
213488,205899,
213645,205990,
214170,206221,
214353,206314,
214868,206557,
215018,206646,
215467,206850,
215556,206889,
216003,207055,
216091,207117,
216480,207264,
216536,207301,
216883,207426,
216900,207453,
217156,207578,
217093,207540,
217337,207645,
217287,207623,
217531,207714,
217469,207701,
217724,207796,
217673,207774,
217869,207865,
217821,207828,
218012,207911,
217919,207868,
218121,207952,
218085,207947,
218318,208025,
218269,208020,
218497,208115,
218431,208082,
218638,208160,
218573,208116,
218744,208216,
218673,208177,
218852,208258,
218779,208221,
218952,208313,
218896,208268,
219056,208371,
218979,208311,
219135,208398,
219032,208325,
219211,208435,
219098,208358,
219261,208474,
219190,208378,
219352,208503,
219249,208431,
219416,208522,
219323,208452,
219477,208540,
219374,208474,
219548,208561,
219483,208495,
219634,208603,
219533,208539,
219651,208599,
219371,208429,
218848,208082,
216619,206919,
213517,205529,
211617,204638,
210513,204107,
209150,203456,
208082,202937,
207230,202587,
207291,202695,
207489,202828,
208109,203151,
208609,203436,
209402,203842,
209954,204143,
210707,204533,
211168,204739,
211700,205011,
211873,205076,
212119,205168,
211980,205113,
212008,205108,
211806,205019,
211942,205098,
212033,205161,
212430,205347,
212591,205458,
212933,205591,
212919,205606,
213080,205639,
212911,205564,
213000,205587,
212819,205507,
212891,205530,
212713,205460,
212842,205497,
212748,205496,
212971,205559,
212968,205611,
213305,205747,
213407,205810,
213843,206014,
214056,206128,
214565,206356,
214780,206468,
215302,206689,
215446,206808,
215885,206960,
216005,207039,
216433,207186,
216533,207249,
216874,207379,
216927,207418,
217273,207542,
217282,207575,
217573,207690,
217543,207692,
217795,207787,
217734,207778,
217952,207857,
217893,207831,
218129,207910,
218071,207918,
218268,207972,
218188,207972,
218419,208038,
218360,208024,
218550,208076,
218485,208085,
218667,208148,
218626,208135,
218786,208199,
218759,208200,
218929,208259,
218866,208235,
219033,208297,
218981,208294,
219143,208329,
219085,208323,
219230,208374,
219167,208373,
219317,208410,
219249,208386,
219382,208425,
219319,208422,
219451,208472,
219390,208446,
219526,208477,
219472,208494,
219583,208503,
219500,208496,
219633,208525,
219569,208528,
219662,208522,
219615,208537,
219738,208556,
219686,208573,
219816,208577,
219763,208617,
219889,208618,
219852,208679,
219969,208649,
219886,208705,
220029,208687,
219963,208734,
220090,208704,
220005,208744,
220025,208661,
219673,208504,
218785,207894,
216049,206594,
213124,205238,
211589,204600,
210597,204037,
209486,203620,
208730,203167,
208036,202973,
208186,203032,
208520,203321,
209194,203609,
209818,204032,
210655,204372,
211324,204803,
212099,205093,
212684,205451,
213246,205649,
213589,205854,
213865,205911,
213878,205983,
213930,205929,
213832,205961,
213978,205952,
214128,206117,
214484,206197,
214705,206377,
214961,206415,
214984,206497,
215058,206450,
214968,206478,
215011,206403,
214938,206448,
214977,206390,
214962,206471,
215080,206428,
215165,206562,
215394,206583,
215564,206731,
215813,206785,
216015,206943,
216283,207001,
216523,207166,
216785,207228,
217063,207399,
217310,207446,
217567,207607,
217763,207625,
217944,207770,
218091,207768,
218238,207893,
218334,207878,
218497,208014,
218547,208000,
218690,208096,
218715,208053,
218807,208150,
218828,208098,
218898,208195,
218922,208142,
219002,208222,
218989,208160,
219053,208249,
219046,208183,
219117,208266,
219089,208207,
219169,208290,
219155,208218,
219251,208309,
219225,208255,
219321,208338,
219288,208277,
219374,208365,
219362,208318,
219466,208396,
219453,208336,
219532,208426,
219492,208382,
219600,208458,
219560,208404,
219644,208470,
219613,208406,
219710,208494,
219664,208447,
219772,208524,
219729,208456,
219828,208552,
219792,208515,
219919,208599,
219852,208544,
219950,208611,
219875,208546,
219960,208630,
219889,208553,
219991,208612,
219910,208555,
220039,208631,
219969,208563,
220100,208636,
220005,208564,
220142,208650,
220042,208586,
220168,208661,
220082,208568,
220144,208632,
219858,208428,
219367,208124,
217563,207175,
214797,205940,
212936,205118,
212236,204813,
211644,204534,
211340,204458,
211105,204361,
211552,204641,
211869,204803,
212547,205210,
213219,205507,
214183,206024,
214890,206333,
215707,206756,
216185,206917,
216725,207214,
216924,207252,
217280,207447,
217308,207389,
217519,207545,
217524,207498,
217812,207684,
217852,207639,
218086,207792,
217997,207706,
218093,207791,
217915,207636,
217897,207661,
217602,207476,
217528,207497,
217206,207306,
217149,207310,
216915,207178,
217019,207281,
216980,207216,
217217,207366,
217295,207353,
217618,207554,
217737,207551,
218080,207734,
218158,207727,
218447,207899,
218474,207853,
218726,208023,
218740,207963,
218941,208106,
218894,208038,
219083,208157,
219019,208083,
219201,208202,
219163,208143,
219328,208271,
219247,208193,
219403,208313,
219324,208226,
219489,208343,
219383,208251,
219527,208362,
219413,208255,
219574,208387,
219497,208297,
219647,208403,
219540,208316,
219712,208436,
219596,208356,
219749,208457,
219637,208385,
219816,208473,
219701,208395,
219875,208510,
219753,208415,
219937,208508,
219807,208434,
219990,208552,
219856,208457,
220069,208578,
219906,208485,
220133,208607,
219967,208510,
220175,208610,
220013,208526,
220202,208615,
220039,208546,
220221,208635,
220065,208533,
220254,208644,
220102,208555,
220313,208663,
220153,208563,
220358,208679,
220218,208605,
220392,208690,
220236,208616,
220420,208719,
220222,208578,
220203,208547,
219451,208083,
217992,207320,
215003,205955,
213431,205288,
212498,204867,
212310,204804,
211927,204655,
212009,204753,
212040,204789,
212724,205194,
213286,205457,
214190,205932,
214786,206212,
215664,206638,
216132,206836,
216809,207147,
217053,207232,
217518,207465,
217561,207468,
217880,207598,
217805,207560,
218062,207680,
218000,207659,
218292,207791,
218255,207758,
218528,207880,
218402,207796,
218543,207879,
218367,207777,
218470,207824,
218222,207692,
218302,207734,
218039,207624,
218129,207658,
217910,207572,
218085,207659,
217999,207624,
218279,207758,
218280,207735,
218620,207890,
218596,207874,
218901,208022,
218869,207987,
219144,208139,
219065,208092,
219322,208225,
219258,208152,
219485,208293,
219388,208208,
219616,208355,
219504,208261,
219732,208402,
219604,208310,
219807,208442,
219701,208351,
219880,208479,
219733,208389,
219921,208510,
219787,208397,
219939,208512,
219826,208413,
219990,208517,
219853,208415,
220033,208533,
219890,208435,
220067,208544,
219932,208443,
220110,208563,
219984,208458,
220156,208579,
220044,208475,
220208,208589,
220094,208513,
220276,208612,
220143,208514,
220320,208629,
220196,208541,
220349,208647,
220229,208558,
220413,208694,
220307,208589,
220484,208685,
220339,208606,
220522,208713,
220388,208632,
220550,208713,
220446,208648,
220602,208765,
220489,208669,
220657,208760,
220514,208670,
220668,208769,
220521,208674,
220679,208765,
220545,208692,
220707,208766,
220570,208699,
220752,208786,
220618,208714,
220801,208811,
220653,208730,
220784,208793,
220481,208616,
220205,208406,
218654,207580,
215962,206316,
213656,205339,
212876,205008,
212271,204744,
212246,204731,
211937,204643,
212209,204808,
212402,204960,
213245,205381,
213800,205683,
214770,206146,
215348,206443,
216281,206862,
216715,207069,
217395,207350,
217557,207421,
217960,207586,
217908,207579,
218149,207659,
217979,207608,
218244,207695,
218175,207666,
218500,207791,
218435,207787,
218712,207877,
218561,207829,
218742,207874,
218511,207783,
218635,207814,
218388,207729,
218522,207761,
218306,207684,
218506,207752,
218396,207697,
218651,207790,
218558,207788,
218853,207893,
218799,207878,
219072,207993,
219006,207982,
219291,208084,
219239,208079,
219488,208186,
219406,208144,
219644,208256,
219546,208209,
219774,208293,
219658,208253,
219847,208339,
219767,208302,
219967,208366,
219877,208344,
220039,208421,
219940,208379,
220116,208435,
219990,208414,
220172,208472,
220033,208413,
220198,208472,
220076,208417,
220228,208469,
220103,208411,
220246,208475,
220134,208437,
220296,208489,
220165,208431,
220296,208491,
220203,208430,
220339,208509,
220227,208447,
220375,208517,
220277,208465,
220451,208556,
220351,208510,
220490,208588,
220395,208523,
220515,208600,
220391,208540,
220541,208601,
220455,208524,
220574,208608,
220473,208515,
220600,208596,
220484,208530,
220644,208645,
220519,208558,
220654,208649,
220536,208542,
220657,208628,
220522,208538,
220690,208646,
220600,208571,
220724,208661,
220607,208581,
220761,208684,
220643,208598,
220790,208685,
220661,208584,
220793,208648,
220649,208568,
220717,208618,
220355,208407,
219885,208098,
218340,207286,
216007,206238,
214347,205536,
213797,205337,
213515,205233,
213769,205394,
213994,205507,
214641,205838,
215181,206134,
216114,206569,
216821,206906,
217646,207284,
218101,207469,
218659,207734,
218808,207795,
219122,207938,
219123,207937,
219301,208009,
219239,207981,
219399,208065,
219360,208035,
219536,208118,
219467,208096,
219636,208164,
219539,208122,
219656,208172,
219483,208095,
219505,208083,
219312,207996,
219379,208009,
219201,207932,
219314,207979,
219190,207957,
219341,207996,
219262,207992,
219426,208074,
219376,208048,
219586,208124,
219511,208100,
219717,208184,
219628,208152,
219846,208233,
219757,208206,
219974,208297,
219911,208265,
220083,208345,
219986,208314,
220192,208395,
220089,208381,
220253,208433,
220151,208416,
220326,208476,
220216,208445,
220385,208483,
220251,208453,
220402,208478,
220272,208454,
220411,208489,
220282,208441,
220443,208498,
220289,208452,
220456,208502,
220312,208449,
220486,208507,
220342,208465,
220520,208511,
220405,208500,
220567,208548,
220463,208522,
220632,208570,
220515,208549,
220676,208606,
220557,208571,
220714,208634,
220591,208583,
220728,208630,
220625,208592,
220764,208630,
220642,208583,
220770,208624,
220670,208590,
220806,208650,
220697,208614,
220839,208672,
220751,208622,
220876,208666,
220777,208634,
220817,208614,
220513,208448,
220049,208144,
218416,207317,
215904,206159,
214140,205438,
213484,205141,
213041,204973,
213081,205022,
213129,205095,
213486,205249,
213836,205488,
214501,205795,
215119,206125,
215931,206491,
216477,206799,
217152,207042,
217531,207247,
218008,207412,
218183,207544,
218463,207608,
218505,207666,
218708,207706,
218728,207785,
218957,207812,
218983,207891,
219194,207895,
219140,207942,
219245,207926,
219101,207920,
219132,207861,
218934,207826,
218913,207739,
218725,207735,
218745,207665,
218632,207693,
218746,207668,
218708,207751,
218882,207752,
218905,207821,
219118,207846,
219178,207948,
219397,207968,
219438,208074,
219618,208061,
219645,208155,
219823,208184,
219826,208232,
219968,208229,
219960,208299,
220087,208287,
220036,208346,
220160,208330,
220124,208371,
220229,208345,
220193,208410,
220313,208384,
220283,208452,
220380,208413,
220306,208477,
220412,208444,
220346,208467,
220434,208435,
220375,208480,
220484,208450,
220427,208510,
220507,208455,
220468,208511,
220551,208458,
220524,208541,
220610,208498,
220560,208557,
220648,208511,
220624,208583,
220667,208528,
220663,208603,
220738,208562,
220713,208604,
220782,208578,
220731,208631,
220802,208587,
220793,208664,
220851,208623,
220833,208691,
220870,208627,
220852,208685,
220870,208606,
220892,208689,
220918,208640,
220942,208732,
220956,208660,
220985,208737,
220979,208653,
220993,208735,
220925,208612,
220738,208554,
220098,208102,
218561,207361,
215718,205995,
214029,205327,
213066,204881,
212645,204762,
212410,204630,
212390,204708,
212455,204727,
212863,205002,
213359,205224,
214084,205641,
214779,205935,
215532,206328,
216122,206567,
216685,206849,
217009,206950,
217320,207138,
217434,207140,
217546,207236,
217497,207161,
217579,207251,
217635,207227,
217874,207385,
217999,207393,
218229,207516,
218276,207484,
218342,207545,
218267,207477,
218211,207481,
218039,207379,
217993,207375,
217839,207266,
217907,207332,
217846,207307,
218015,207405,
218063,207390,
218255,207519,
218311,207498,
218491,207600,
218578,207598,
218811,207728,
218905,207746,
219132,207862,
219197,207866,
219392,207982,
219434,207970,
219621,208096,
219594,208028,
219775,208157,
219743,208116,
219893,208201,
219855,208145,
220000,208231,
219955,208206,
220100,208281,
220051,208256,
220173,208327,
220093,208241,
220193,208329,
220137,208271,
220245,208319,
220149,208262,
220274,208342,
220192,208275,
220329,208356,
220267,208316,
220400,208389,
220319,208335,
220452,208410,
220361,208337,
220489,208440,
220405,208368,
220548,208457,
220453,208362,
220619,208476,
220538,208409,
220645,208506,
220549,208408,
220666,208504,
220574,208423,
220697,208510,
220590,208420,
220734,208541,
220682,208453,
220792,208587,
220712,208485,
220815,208573,
220698,208461,
220796,208565,
220710,208447,
220837,208545,
220749,208471,
220883,208574,
220785,208504,
220902,208594,
220690,208394,
220526,208335,
219686,207776,
217979,206986,
215265,205733,
213948,205232,
213133,204821,
212907,204795,
212754,204700,
212966,204893,
213195,204972,
213786,205335,
214297,205558,
215103,206004,
215694,206236,
216473,206625,
216899,206789,
217438,207082,
217635,207104,
217920,207289,
217892,207220,
218015,207311,
217910,207235,
218063,207343,
218115,207311,
218374,207469,
218389,207415,
218582,207549,
218480,207443,
218600,207555,
218444,207425,
218463,207482,
218267,207326,
218311,207398,
218143,207294,
218278,207400,
218143,207314,
218344,207449,
218314,207378,
218582,207554,
218590,207504,
218878,207664,
218891,207638,
219186,207783,
219178,207761,
219448,207896,
219380,207841,
219638,207967,
219553,207905,
219770,208027,
219681,207974,
219919,208099,
219823,208025,
220019,208148,
219911,208083,
220094,208192,
219949,208101,
220132,208210,
220009,208115,
220214,208244,
220076,208166,
220256,208264,
220111,208171,
220270,208267,
220131,208185,
220322,208294,
220184,208204,
220359,208309,
220200,208216,
220409,208326,
220274,208252,
220474,208342,
220316,208274,
220513,208374,
220377,208302,
220568,208403,
220432,208325,
220625,208430,
220447,208333,
220619,208428,
220477,208341,
220679,208428,
220532,208361,
220720,208467,
220602,208406,
220846,208519,
220696,208431,
220867,208539,
220723,208432,
220842,208512,
220515,208289,
220159,208060,
218570,207209,
216043,206065,
214067,205212,
213287,204878,
212654,204589,
212558,204571,
212316,204465,
212548,204633,
212672,204701,
213298,205049,
213735,205261,
214503,205655,
214929,205864,
215636,206205,
215925,206317,
216415,206565,
216469,206563,
216754,206708,
216682,206656,
216911,206758,
216906,206754,
217297,206969,
217384,206987,
217753,207160,
217675,207100,
217828,207180,
217545,207008,
217526,207040,
217198,206836,
217172,206836,
216836,206677,
216896,206731,
216698,206621,
216848,206719,
216753,206640,
217006,206831,
216977,206753,
217333,206979,
217384,206958,
217793,207187,
217904,207180,
218291,207388,
218345,207390,
218684,207569,
218675,207524,
218963,207693,
218925,207631,
219204,207782,
219184,207731,
219432,207873,
219378,207803,
219595,207950,
219498,207848,
219711,207988,
219585,207883,
219784,208030,
219700,207950,
219901,208080,
219790,207988,
220003,208117,
219889,208019,
220078,208126,
219948,208048,
220138,208159,
220029,208072,
220215,208186,
220080,208080,
220277,208217,
220145,208120,
220327,208225,
220212,208138,
220383,208253,
220268,208153,
220471,208280,
220317,208189,
220508,208300,
220390,208228,
220559,208351,
220457,208267,
220604,208371,
220502,208295,
220657,208387,
220523,208299,
220688,208391,
220572,208323,
220763,208420,
220656,208363,
220808,208451,
220682,208393,
220768,208402,
220308,208139,
219569,207672,
217130,206473,
214686,205423,
213169,204752,
212551,204471,
211877,204187,
211667,204126,
211233,203970,
211487,204114,
211607,204238,
212178,204513,
212466,204683,
213166,205021,
213493,205190,
214114,205476,
214255,205544,
214641,205716,
214549,205687,
214722,205711,
214461,205623,
214586,205667,
214455,205638,
214848,205811,
214960,205876,
215392,206067,
215439,206095,
215759,206210,
215629,206165,
215769,206199,
215509,206071,
215599,206115,
215353,206011,
215478,206037,
215331,205978,
215598,206092,
215495,206071,
215815,206214,
215846,206241,
216198,206378,
216217,206437,
216583,206572,
216617,206580,
216942,206725,
216959,206751,
217299,206881,
217339,206906,
217692,207059,
217749,207066,
218124,207229,
218191,207245,
218490,207377,
218481,207385,
218760,207500,
218727,207500,
219025,207619,
218971,207577,
219198,207680,
219140,207674,
219350,207754,
219288,207722,
219478,207818,
219405,207769,
219576,207855,
219521,207840,
219698,207899,
219619,207868,
219805,207942,
219743,207928,
219941,208007,
219842,207989,
220024,208057,
219922,208009,
220094,208080,
219984,208022,
220165,208093,
220072,208063,
220244,208128,
220149,208081,
220297,208163,
220200,208109,
220359,208190,
220246,208125,
220405,208198,
220291,208126,
220441,208225,
220346,208159,
220499,208248,
220393,208184,
220530,208291,
220429,208189,
220584,208296,
220483,208205,
220636,208302,
220558,208239,
220702,208335,
220568,208250,
220698,208321,
220520,208188,
220382,208093,
219363,207501,
217226,206463,
214459,205233,
213264,204733,
212399,204327,
212053,204214,
211591,204006,
211536,204060,
211579,204093,
212099,204386,
212532,204601,
213202,204953,
213620,205145,
214208,205460,
214511,205587,
214936,205791,
215006,205786,
215227,205921,
215177,205849,
215315,205930,
215266,205881,
215528,206033,
215676,206100,
216083,206302,
216223,206340,
216454,206482,
216427,206410,
216508,206454,
216343,206372,
216345,206373,
216144,206268,
216177,206308,
216048,206222,
216162,206272,
216127,206276,
216367,206383,
216419,206410,
216745,206555,
216853,206614,
217214,206765,
217303,206821,
217640,206981,
217706,206994,
218036,207132,
218087,207147,
218356,207250,
218367,207261,
218631,207369,
218592,207370,
218847,207465,
218781,207455,
219022,207538,
218929,207517,
219131,207590,
219065,207567,
219267,207653,
219201,207627,
219404,207718,
219335,207702,
219554,207768,
219463,207738,
219633,207803,
219529,207776,
219711,207832,
219609,207789,
219780,207836,
219672,207813,
219879,207902,
219772,207862,
219979,207937,
219896,207916,
220073,207984,
219984,207959,
220142,208018,
220030,207993,
220204,208031,
220081,208007,
220265,208070,
220147,208033,
220303,208089,
220230,208082,
220371,208125,
220267,208070,
220398,208124,
220316,208115,
220461,208154,
220373,208107,
220521,208169,
220450,208177,
220626,208232,
220541,208216,
220680,208246,
220559,208221,
220633,208208,
220322,208038,
219740,207643,
217710,206644,
215056,205459,
213420,204767,
212675,204403,
212049,204151,
211769,204033,
211375,203930,
211482,203987,
211669,204127,
212153,204375,
212522,204588,
213104,204841,
213440,205059,
213890,205227,
214032,205354,
214247,205386,
214174,205423,
214215,205372,
214072,205360,
214183,205352,
214189,205414,
214482,205488,
214670,205658,
215002,205746,
215008,205803,
215149,205800,
215017,205816,
215029,205734,
214838,205727,
214848,205651,
214717,205654,
214763,205604,
214686,205627,
214816,205626,
214786,205693,
214971,205699,
215036,205816,
215319,205862,
215433,206015,
215734,206065,
215888,206231,
216200,206296,
216375,206446,
216693,206525,
216848,206672,
217132,206709,
217238,206834,
217468,206871,
217532,206951,
217755,206966,
217815,207080,
218022,207114,
218087,207198,
218259,207205,
218294,207293,
218445,207280,
218471,207371,
218617,207349,
218634,207425,
218782,207418,
218794,207497,
218913,207456,
218948,207562,
219061,207515,
219102,207611,
219196,207601,
219253,207664,
219351,207648,
219401,207743,
219509,207707,
219581,207823,
219664,207803,
219729,207890,
219792,207847,
219829,207934,
219855,207885,
219953,207969,
219976,207928,
220045,208007,
220077,207980,
220148,208061,
220141,208005,
220243,208102,
220226,208052,
220317,208133,
220291,208066,
220340,208128,
220314,208081,
220401,208172,
220378,208090,
220459,208188,
220435,208117,
220515,208194,
220484,208128,
220579,208224,
220558,208171,
220656,208255,
220616,208195,
220703,208282,
220645,208201,
220676,208240,
220417,208042,
219771,207658,
217629,206551,
214742,205326,
213057,204528,
212144,204169,
211404,203809,
210821,203573,
210399,203394,
210476,203502,
210491,203484,
210795,203703,
211132,203855,
211690,204163,
212109,204367,
212678,204677,
213010,204802,
213398,205014,
213511,205033,
213639,205100,
213520,205036,
213528,205041,
213403,204961,
213551,205074,
213677,205113,
214026,205304,
214229,205377,
214533,205541,
214563,205518,
214746,205620,
214638,205531,
214726,205565,
214564,205498,
214639,205526,
214509,205460,
214675,205563,
214642,205524,
214861,205650,
214888,205639,
215152,205787,
215197,205790,
215523,205963,
215688,206004,
216076,206220,
216252,206290,
216614,206483,
216745,206490,
217114,206712,
217251,206713,
217613,206916,
217737,206918,
218062,207120,
218146,207073,
218441,207288,
218486,207243,
218730,207390,
218743,207354,
218955,207502,
218934,207427,
219141,207572,
219097,207488,
219258,207614,
219214,207539,
219411,207669,
219346,207595,
219516,207733,
219478,207649,
219653,207772,
219594,207692,
219775,207841,
219719,207750,
219892,207877,
219822,207798,
219978,207923,
219919,207841,
220058,207969,
219972,207864,
220119,207983,
220065,207904,
220189,208012,
220097,207911,
220238,208025,
220161,207943,
220287,208057,
220223,207974,
220388,208071,
220282,207996,
220421,208091,
220324,208013,
220494,208128,
220395,208046,
220553,208161,
220453,208088,
220611,208188,
220475,208084,
220643,208202,
220525,208107,
220665,208215,
220536,208114,
220711,208225,
220572,208115,
220739,208222,
220597,208127,
220765,208215,
220620,208133,
220817,208245,
220677,208147,
220878,208268,
220726,208187,
220888,208266,
220656,208123,
220609,208056,
219822,207579,
218468,206874,
215562,205545,
214073,204942,
213045,204481,
212788,204408,
212518,204281,
212780,204465,
212875,204522,
213473,204848,
213917,205071,
214732,205491,
215276,205730,
216092,206143,
216468,206291,
217043,206557,
217172,206606,
217499,206754,
217428,206688,
217602,206779,
217390,206692,
217565,206775,
217503,206742,
217853,206911,
217883,206915,
218230,207051,
218141,207011,
218318,207094,
218138,206995,
218240,207042,
217969,206898,
218038,206953,
217796,206825,
217925,206889,
217790,206820,
218013,206955,
217967,206919,
218285,207063,
218260,207042,
218590,207186,
218566,207168,
218851,207288,
218815,207263,
219161,207412,
219114,207378,
219386,207510,
219333,207493,
219591,207618,
219514,207545,
219750,207693,
219635,207595,
219835,207743,
219727,207658,
219953,207788,
219826,207707,
220051,207847,
219919,207747,
220099,207877,
219981,207773,
220124,207878,
219994,207768,
220181,207907,
220058,207801,
220219,207921,
220118,207846,
220278,207958,
220160,207854,
220351,208000,
220213,207884,
220402,208000,
220282,207921,
220460,208031,
220322,207931,
220492,208051,
220380,207942,
220549,208058,
220443,207967,
220605,208091,
220492,208010,
220684,208124,
220559,208052,
220719,208156,
220607,208076,
220763,208174,
220612,208068,
220776,208167,
220645,208058,
220790,208146,
220677,208070,
220842,208176,
220716,208108,
220911,208209,
220795,208149,
220938,208219,
220807,208134,
220939,208227,
220730,208093,
220642,208013,
219781,207487,
218165,206701,
215476,205491,
214253,204985,
213368,204579,
213241,204550,
212993,204488,
213294,204650,
213402,204728,
213942,205023,
214293,205206,
215101,205603,
215526,205823,
216312,206169,
216624,206337,
217196,206578,
217289,206636,
217632,206767,
217463,206702,
217616,206750,
217436,206689,
217717,206805,
217721,206819,
218145,206995,
218116,206980,
218384,207062,
218235,207017,
218330,207036,
217979,206902,
217975,206871,
217590,206693,
217604,206697,
217322,206595,
217490,206660,
217377,206626,
217673,206763,
217659,206786,
217999,206913,
217986,206925,
218354,207097,
218375,207092,
218720,207227,
218745,207233,
219089,207390,
219087,207382,
219409,207515,
219371,207518,
219640,207617,
219575,207585,
219821,207690,
219715,207670,
219941,207754,
219851,207728,
220074,207817,
219979,207799,
220183,207868,
220080,207801,
220235,207887,
220096,207830,
220251,207858,
220104,207813,
220252,207877,
220156,207815,
220305,207896,
220222,207855,
220418,207940,
220304,207870,
220470,207968,
220404,207935,
220544,207997,
220445,207955,
220609,208019,
220497,207961,
220662,208058,
220553,207980,
220695,208072,
220589,207993,
220734,208072,
220615,207995,
220752,208084,
220639,208005,
220768,208086,
220676,208013,
220834,208111,
220717,208050,
220870,208143,
220780,208070,
220915,208160,
220805,208072,
220970,208197,
220867,208111,
220988,208185,
220903,208126,
221040,208193,
220947,208138,
221084,208233,
220935,208128,
220901,208091,
220326,207725,
219142,207084,
216387,205816,
214619,205095,
213549,204608,
213188,204482,
212908,204361,
213022,204449,
213085,204524,
213496,204760,
213870,204943,
214519,205284,
214996,205525,
215636,205839,
215990,206015,
216448,206228,
216543,206272,
216762,206373,
216614,206302,
216628,206298,
216380,206184,
216440,206212,
216393,206176,
216750,206360,
216892,206424,
217280,206569,
217299,206575,
217502,206645,
217349,206570,
217418,206567,
217134,206451,
217192,206466,
216979,206388,
217070,206400,
216893,206330,
217067,206410,
216956,206399,
217158,206474,

