
222178,215002,
222226,215029,
222265,215054,
222331,215046,
222366,215096,
222410,215113,
222447,215129,
222501,215171,
222531,215192,
222571,215198,
222604,215197,
222653,215222,
222689,215219,
222737,215260,
222781,215269,
222855,215298,
222918,215333,
222983,215346,
223058,215375,
223130,215420,
223202,215448,
223261,215455,
223323,215497,
223370,215523,
223432,215560,
223517,215560,
223571,215600,
223629,215604,
223694,215644,
223745,215654,
223797,215686,
223860,215696,
223879,215700,
223942,215727,
224003,215754,
224046,215771,
224082,215788,
224133,215822,
224189,215839,
224212,215851,
224281,215878,
224337,215912,
224384,215934,
224437,215955,
224489,215958,
224509,215961,
224485,215956,
224405,215897,
224302,215827,
224133,215743,
223891,215621,
223627,215493,
223328,215361,
223043,215228,
222717,215084,
222444,214963,
222189,214869,
221991,214796,
221833,214737,
221748,214713,
221686,214693,
221693,214706,
221763,214727,
221819,214749,
221905,214773,
222019,214810,
222075,214865,
222182,214889,
222249,214898,
222325,214928,
222380,214962,
222455,214988,
222520,215005,
222584,215016,
222650,215040,
222688,215070,
222750,215061,
222769,215070,
222819,215066,
222839,215066,
222914,215087,
222963,215116,
223021,215130,
223087,215164,
223137,215201,
223198,215200,
223263,215223,
223315,215269,
223364,215283,
223416,215313,
223477,215344,
223545,215387,
223623,215388,
223695,215401,
223795,215456,
223892,215514,
224004,215557,
224133,215612,
224255,215667,
224336,215705,
224421,215743,
224494,215763,
224557,215794,
224596,215823,
224659,215835,
224715,215870,
224736,215890,
224771,215907,
224777,215920,
224786,215934,
224804,215970,
224837,215978,
224856,215995,
224889,216007,
224906,216016,
224918,216025,
224939,216038,
224981,216065,
224985,216067,
225021,216101,
225044,216102,
225050,216101,
225078,216102,
225100,216125,
225143,216145,
225220,216176,
225289,216207,
225377,216251,
225447,216296,
225511,216333,
225565,216341,
225595,216378,
225642,216381,
225690,216415,
225724,216428,
225781,216456,
225874,216492,
225899,216515,
225980,216532,
226031,216568,
226117,216614,
226180,216646,
226275,216684,
226359,216711,
226410,216758,
226467,216777,
226537,216799,
226596,216833,
226661,216857,
226722,216869,
226780,216901,
226836,216903,
226894,216917,
226909,216936,
226955,216950,
226989,216966,
226975,216976,
226942,216930,
226812,216872,
226653,216780,
226467,216689,
226259,216562,
226018,216456,
225770,216322,
225519,216205,
225233,216104,
224921,215956,
224660,215842,
224444,215758,
224276,215695,
224127,215667,
224009,215601,
223897,215566,
223845,215542,
223736,215520,
223677,215503,
223636,215482,
223595,215452,
223568,215435,
223532,215443,
223506,215415,
223475,215414,
223432,215393,
223393,215385,
223355,215361,
223307,215341,
223273,215308,
223247,215307,
223179,215287,
223147,215275,
223093,215252,
223051,215223,
223017,215230,
222990,215217,
222972,215191,
222988,215211,
222959,215200,
222972,215197,
222965,215225,
223010,215219,
223021,215239,
223079,215253,
223116,215290,
223183,215306,
223218,215350,
223284,215378,
223311,215379,
223374,215386,
223425,215426,
223484,215439,
223534,215472,
223587,215485,
223622,215533,
223667,215532,
223701,215548,
223726,215558,
223728,215568,
223753,215570,
223761,215576,
223770,215559,
223772,215563,
223790,215584,
223803,215596,
223849,215607,
223851,215615,
223866,215615,
223895,215645,
223906,215634,
223930,215654,
223974,215678,
224000,215682,
224035,215699,
224065,215710,
224100,215721,
224141,215717,
224177,215748,
224211,215779,
224268,215781,
224285,215808,
224346,215821,
224390,215847,
224452,215870,
224491,215889,
224521,215910,
224571,215941,
224606,215958,
224630,215960,
224692,215985,
224716,215995,
224754,216014,
224787,216031,
224871,216046,
224893,216068,
224938,216076,
224952,216099,
224984,216107,
225015,216116,
225046,216128,
225066,216131,
225048,216129,
225024,216107,
224956,216056,
224797,215995,
224645,215898,
224417,215807,
224184,215710,
223929,215581,
223653,215453,
223416,215355,
223199,215270,
223014,215212,
222878,215145,
222778,215096,
222684,215080,
222626,215045,
222564,215018,
222552,215003,
222521,215001,
222509,214984,
222491,214997,
222511,214991,
222522,215019,
222570,215014,
222571,215018,
222600,215035,
222601,215028,
222619,215047,
222628,215046,
222640,215038,
222613,215016,
222607,215034,
222581,215004,
222559,214989,
222560,214999,
222547,214983,
222555,214997,
222536,215001,
222534,214997,
222554,215011,
222545,215011,
222582,215032,
222593,215034,
222629,215064,
222689,215092,
222735,215104,
222786,215138,
222877,215169,
222924,215199,
222997,215232,
223061,215249,
223118,215291,
223172,215321,
223237,215351,
223300,215375,
223366,215405,
223397,215416,
223450,215433,
223486,215458,
223520,215460,
223555,215484,
223607,215502,
223650,215518,
223691,215551,
223704,215580,
223750,215564,
223756,215574,
223752,215580,
223777,215585,
223794,215584,
223822,215604,
223852,215629,
223903,215650,
223934,215658,
223999,215686,
224040,215698,
224082,215711,
224109,215722,
224146,215733,
224190,215760,
224219,215776,
224243,215791,
224282,215801,
224321,215838,
224396,215851,
224435,215877,
224472,215892,
224536,215925,
224574,215937,
224614,215944,
224656,215978,
224713,215983,
224774,216012,
224803,216026,
224786,216019,
224758,215990,
224648,215927,
224494,215861,
224337,215773,
224100,215671,
223868,215559,
223625,215462,
223399,215372,
223189,215287,
223007,215198,
222865,215151,
222735,215101,
222654,215074,
222597,215062,
222556,215051,
222574,215043,
222566,215066,
222555,215063,
222598,215081,
222609,215080,
222621,215085,
222619,215086,
222643,215078,
222652,215087,
222689,215116,
222702,215133,
222755,215154,
222760,215144,
222768,215143,
222770,215138,
222746,215143,
222710,215128,
222695,215117,
222671,215102,
222672,215105,
222636,215101,
222640,215102,
222648,215100,
222672,215100,
222677,215113,
222695,215112,
222697,215134,
222741,215130,
222783,215164,
222826,215170,
222881,215208,
222947,215232,
223015,215264,
223062,215264,
223094,215278,
223132,215313,
223168,215329,
223210,215338,
223250,215350,
223305,215380,
223327,215388,
223373,215431,
223407,215434,
223445,215447,
223459,215453,
223495,215460,
223478,215459,
223491,215473,
223505,215465,
223508,215482,
223539,215507,
223577,215498,
223608,215523,
223613,215529,
223627,215528,
223647,215551,
223663,215546,
223687,215542,
223683,215560,
223712,215565,
223736,215574,
223782,215597,
223814,215607,
223849,215621,
223890,215632,
223919,215640,
223934,215658,
223942,215644,
223943,215655,
223968,215664,
223984,215677,
224041,215670,
224105,215713,
224181,215750,
224226,215751,
224259,215764,
224276,215763,
224239,215753,
224174,215702,
224053,215636,
223865,215550,
223663,215450,
223402,215339,
223153,215238,
222923,215129,
222670,215046,
222475,214957,
222290,214885,
222162,214839,
222018,214804,
221956,214758,
221884,214738,
221854,214711,
221835,214705,
221856,214711,
221856,214729,
221892,214730,
221863,214721,
221829,214698,
221801,214688,
221790,214690,
221773,214673,
221785,214675,
221808,214679,
221837,214718,
221839,214704,
221860,214715,
221846,214720,
221841,214712,
221779,214693,
221775,214681,
221743,214661,
221737,214663,
221748,214666,
221778,214679,
221804,214693,
221840,214713,
221828,214733,
221891,214733,
221900,214767,
221937,214784,
221982,214817,
222044,214813,
222099,214842,
222150,214864,
222200,214905,
222251,214919,
222277,214930,
222332,214959,
222369,214960,
222387,214983,
222440,214997,
222463,215003,
222507,215024,
222530,215049,
222571,215060,
222605,215080,
222621,215073,
222640,215091,
222651,215084,
222674,215091,
222695,215106,
222700,215106,
222730,215112,
222753,215138,
222791,215152,
222822,215189,
222856,215183,
222898,215193,
222918,215212,
222936,215215,
222986,215237,
223018,215249,
223054,215265,
223100,215288,
223144,215317,
223188,215338,
223240,215339,
223236,215356,
223266,215357,
223284,215369,
223291,215368,
223324,215374,
223338,215391,
223390,215413,
223429,215429,
223470,215461,
223523,215485,
223567,215487,
223612,215506,
223618,215509,
223617,215494,
223562,215454,
223455,215407,
223290,215324,
223099,215258,
222898,215148,
222634,215042,
222382,214956,
222148,214845,
221933,214757,
221725,214672,
221584,214612,
221472,214562,
221381,214555,
221332,214541,
221273,214516,
221271,214508,
221254,214511,
221267,214494,
221246,214491,
221245,214499,
221231,214504,
221236,214486,
221222,214478,
221232,214476,
221236,214500,
221237,214489,
221239,214498,
221248,214469,
221239,214468,
221209,214470,
221198,214455,
221173,214471,
221176,214462,
221163,214446,
221157,214446,
221116,214425,
221104,214428,
221127,214436,
221151,214437,
221163,214451,
221163,214454,
221154,214441,
221170,214441,
221190,214468,
221236,214485,
221270,214503,
221304,214495,
221350,214526,
221397,214545,
221446,214559,
221515,214584,
221546,214614,
221605,214629,
221645,214650,
221697,214671,
221741,214693,
221791,214703,
221820,214741,
221884,214753,
221911,214782,
221967,214794,
222020,214798,
222069,214826,
222107,214844,
222146,214872,
222181,214896,
222216,214881,
222221,214911,
222215,214909,
222227,214915,
222242,214924,
222285,214917,
222332,214937,
222343,214956,
222407,214962,
222458,214989,
222518,215041,
222605,215045,
222649,215074,
222716,215116,
222755,215156,
222808,215163,
222857,215192,
222902,215199,
222953,215218,
222975,215228,
223035,215255,
223077,215262,
223090,215276,
223111,215296,
223119,215283,
223108,215312,
223137,215310,
223113,215310,
223163,215311,
223186,215316,
223223,215335,
223259,215337,
223309,215357,
223350,215381,
223389,215388,
223405,215391,
223422,215387,
223392,215379,
223295,215319,
223160,215269,
222974,215173,
222756,215077,
222536,214998,
222286,214876,
222053,214787,
221831,214710,
221631,214632,
221454,214540,
221305,214496,
221205,214450,
221129,214436,
221076,214421,
221057,214392,
221065,214415,
221074,214411,
221067,214410,
221085,214407,
221093,214405,
221083,214407,
221082,214407,
221072,214417,
221112,214421,
221105,214435,
221130,214440,
221174,214464,
221190,214478,
221209,214490,
221214,214478,
221212,214493,
221199,214473,
221176,214477,
221195,214471,
221182,214471,
221208,214494,
221203,214513,
221217,214498,
221233,214520,
221267,214526,
221288,214535,
221332,214540,
221360,214562,
221401,214588,
221446,214604,
221469,214617,
221544,214659,
221578,214673,
221631,214690,
221675,214715,
221723,214730,
221778,214745,
221805,214758,
221837,214774,
221849,214785,
221888,214811,
221930,214817,
221989,214869,
222033,214890,
222075,214897,
222109,214905,
222128,214914,
222128,214928,
222167,214930,
222167,214937,
222198,214968,
222233,214975,
222283,214984,
222308,215008,
222359,215012,
222380,215042,
222439,215060,
222443,215071,
222489,215077,
222508,215102,
222546,215114,
222549,215127,
222603,215129,
222607,215144,
222648,215154,
222671,215161,
222714,215187,
222739,215180,
222765,215192,
222786,215194,
222781,215197,
222809,215213,
222821,215210,
222883,215225,
222934,215267,
222987,215275,
223023,215306,
223084,215327,
223113,215353,
223145,215366,
223128,215341,
223049,215307,
222962,215266,
222813,215189,
222662,215122,
222475,215040,
222264,214959,
222054,214858,
221819,214781,
221603,214690,
221429,214614,
221280,214557,
221198,214531,
221129,214496,
221094,214480,
221073,214476,
221063,214478,
221068,214480,
221073,214469,
221075,214465,
221056,214481,
221068,214461,
221049,214464,
221089,214468,
221087,214461,
221102,214469,
221115,214474,
221124,214473,
221135,214479,
221158,214499,
221171,214496,
221166,214515,
221167,214529,
221182,214514,
221190,214525,
221213,214525,
221208,214539,
221220,214531,
221235,214541,
221246,214557,
221273,214553,
221329,214577,
221370,214605,
221432,214646,
221493,214656,
221519,214685,
221552,214690,
221612,214707,
221627,214731,
221683,214743,
221716,214744,
221755,214778,
221803,214796,
221860,214826,
221894,214825,
221953,214859,
222008,214899,
222054,214900,
222085,214909,
222144,214919,
222186,214964,
222227,214975,
222270,214988,
222318,215005,
222358,215024,
222411,215052,
222444,215068,
222504,215091,
222574,215105,
222585,215123,
222636,215142,
222659,215141,
222715,215181,
222736,215189,
222789,215216,
222825,215230,
222895,215272,
222951,215294,
222992,215321,
223067,215336,
223096,215366,
223120,215380,
223151,215384,
223177,215403,
223244,215413,
223289,215424,
223338,215446,
223377,215478,
223423,215498,
223452,215523,
223485,215529,
223502,215536,
223533,215543,
223553,215553,
223604,215565,
223623,215586,
223693,215595,
223715,215633,
223761,215646,
223773,215650,
223807,215658,
223772,215640,
223704,215616,
223589,215540,
223424,215455,
223212,215385,
223029,215309,
222800,215208,
222603,215120,
222408,215078,
222261,215008,
222122,214944,
222032,214909,
221927,214873,
221873,214868,
221821,214850,
221810,214858,
221835,214851,
221832,214858,
221863,214859,
221844,214852,
221811,214850,
221806,214845,
221796,214833,
221789,214820,
221773,214818,
221772,214823,
221796,214822,
221804,214847,
221835,214846,
221862,214845,
221857,214859,
221867,214862,
221875,214875,
221903,214879,
221891,214887,
221897,214885,
221920,214905,
221935,214898,
221951,214908,
221979,214912,
222001,214947,
221999,214923,
222030,214942,
222070,214947,
222082,214966,
222118,214964,
222163,215002,
222206,215000,
222258,215053,
222301,215050,
222346,215085,
222387,215101,
222430,215123,
222451,215125,
222479,215148,
222489,215142,
222534,215173,
222562,215186,
222601,215210,
222641,215211,
222678,215231,
222678,215242,
222745,215251,
222760,215274,
222793,215291,
222800,215272,
222844,215303,
222844,215308,
222913,215334,
222953,215341,
222997,215363,
223040,215377,
223061,215403,
223101,215426,
223131,215430,
223173,215448,
223195,215459,
223228,215464,
223258,215485,
223282,215494,
223309,215507,
223370,215526,
223389,215564,
223466,215563,
223495,215594,
223546,215594,
223581,215618,
223616,215640,
223647,215658,
223679,215652,
223703,215687,
223757,215690,
223774,215708,
223814,215723,
223861,215739,
223894,215762,
223949,215781,
224009,215807,
224061,215826,
224127,215859,
224170,215881,
224220,215909,
224243,215916,
224299,215924,
224295,215919,
224264,215888,
224198,215855,
224079,215806,
223896,215725,
223702,215626,
223456,215530,
223199,215415,
222940,215306,
222706,215202,
222486,215122,
222307,215046,
222149,214995,
222024,214938,
221936,214913,
221888,214879,
221831,214860,
221817,214847,
221818,214853,
221754,214826,
221741,214818,
221688,214784,
221678,214778,
221626,214764,
221634,214750,
221616,214738,
221624,214733,
221611,214744,
221640,214754,
221623,214748,
221623,214735,
221608,214734,
221575,214730,
221543,214731,
221526,214710,
221521,214716,
221498,214694,
221509,214700,
221522,214717,
221514,214704,
221530,214721,
221528,214729,
221574,214739,
221582,214767,
221627,214762,
221631,214780,
221653,214792,
221649,214789,
221650,214768,
221627,214777,
221622,214768,
221599,214770,
221621,214787,
221600,214779,
221630,214790,
221616,214797,
221656,214792,
221651,214795,
221709,214821,
221737,214838,
221772,214857,
221793,214861,
221829,214892,
221875,214899,
221910,214909,
221939,214923,
221968,214948,
221992,214945,
222012,214966,
222025,214961,
222037,214974,
222047,214972,
222087,214991,
222114,215003,
222119,215025,
222133,215048,
222119,215018,
222104,215022,
222090,215028,
222091,215017,
222084,215035,
222094,215023,
222081,215009,
222098,215028,
222128,215043,
222156,215054,
222181,215064,
222189,215068,
222206,215070,
222215,215070,
222227,215082,
222228,215105,
222248,215092,
222261,215097,
222277,215101,
222296,215107,
222298,215118,
222321,215116,
222342,215132,
222324,215117,
222292,215090,
222170,215026,
222036,214975,
221823,214866,
221606,214765,
221348,214653,
221105,214545,
220869,214438,
220640,214360,
220468,214302,
220318,214228,
220224,214188,
220151,214162,
220105,214151,
220115,214158,
220145,214184,
220192,214196,
220212,214194,
220258,214226,
220274,214236,
220303,214244,
220310,214227,
220336,214245,
220361,214249,
220403,214270,
220430,214270,
220473,214292,
220526,214327,
220589,214345,
220608,214368,
220666,214405,
220666,214383,
220683,214404,
220666,214398,
220678,214409,
220683,214402,
220697,214413,
220726,214421,
220760,214454,
220792,214461,
220866,214476,
220911,214517,
220983,214527,
221019,214550,
221099,214585,
221139,214589,
221195,214635,
221266,214664,
221370,214703,
221415,214734,
221512,214770,
221555,214796,
221643,214808,
221682,214819,
221749,214861,
221826,214900,
221890,214939,
221932,214971,
222014,214996,
222049,215020,
222121,215046,
222164,215070,
222198,215078,
222226,215091,
222275,215111,
222300,215112,
222341,215126,
222369,215145,
222410,215170,
222456,215198,
222508,215210,
222545,215228,
222568,215261,
222618,215257,
222646,215255,
222688,215296,
222706,215310,
222754,215311,
222788,215343,
222835,215359,
222884,215390,
222919,215393,
222979,215409,
223016,215428,
223056,215453,
223096,215462,
223127,215486,
223168,215481,
223210,215502,
223256,215516,
223317,215554,
223364,215581,
223414,215596,
223470,215619,
223529,215643,
223578,215659,
223624,215683,
223657,215699,
223701,215727,
223759,215751,
223780,215754,
223782,215754,
223751,215716,
223662,215687,
223544,215627,
223344,215540,
223133,215442,
222893,215348,
222645,215241,
222423,215136,
222176,215037,
221993,214975,
221824,214898,
221704,214859,
221617,214814,
221559,214806,
221519,214777,
221491,214783,
221472,214770,
221468,214768,
221478,214764,
221492,214764,
221509,214753,
221529,214779,
221538,214785,
221542,214783,
221548,214790,
221579,214792,
221574,214803,
221599,214805,
221614,214814,
221617,214813,
221591,214826,
221604,214819,
221597,214821,
221628,214824,
221627,214818,
221632,214852,
221645,214852,
221662,214845,
221676,214864,
221726,214878,
221727,214880,
221779,214895,
221808,214930,
221856,214942,
221900,214981,
221962,214991,
222013,215026,
222069,215051,
222112,215080,
222184,215084,
222236,215101,
222263,215136,
222307,215147,
222341,215165,
222383,215171,
222433,215179,
222496,215222,
222512,215223,
222561,215238,
222586,215277,
222641,215281,
222666,215299,
222698,215300,
222750,215327,
222804,215353,
222822,215353,
222874,215386,
222903,215409,
222969,215439,
223009,215448,
223070,215490,
223112,215505,
223161,215523,
223190,215537,
223247,215545,
223269,215544,
223333,215588,
223374,215611,
223446,215636,
223505,215662,
223558,215680,
223582,215710,
223637,215712,
223665,215709,
223690,215714,
223722,215741,
223786,215763,
223808,215778,
223868,215809,
223906,215808,
223957,215844,
224003,215870,
224050,215860,
224084,215903,
224121,215914,
224117,215907,
224171,215920,
224147,215897,
224130,215898,
224083,215866,
223984,215820,
223841,215758,
223684,215682,
223451,215567,
223202,215475,
222966,215350,
222728,215266,
222508,215175,
222342,215112,
222205,215054,
222117,215014,
222051,214993,
222035,214984,
222005,214972,
222010,214958,
221982,214962,
221991,214948,
221995,214957,
222004,214967,
221974,214951,
221977,214939,
221950,214931,
221965,214933,
221948,214921,
221948,214931,
221977,214940,
221995,214948,
221986,214934,
221986,214930,
221968,214906,
221960,214901,
221933,214896,
221924,214911,
221936,214906,
221953,214912,
221954,214899,
221969,214911,
221975,214921,
221991,214925,
221999,214923,
222041,214953,
222056,214952,
222123,214985,
222176,214998,
222216,215036,
222274,215049,
222338,215090,
222396,215094,
222432,215125,
222475,215144,
222513,215160,
222546,215169,
222606,215187,
222669,215217,
222714,215235,
222773,215269,
222810,215287,
222849,215326,
222879,215332,
222903,215332,
222929,215348,
222975,215367,
222971,215367,
222999,215372,
223043,215397,
223077,215407,
223134,215423,
223154,215452,
223203,215459,
223206,215461,
223244,215485,
223244,215490,
223268,215493,
223311,215506,
223346,215520,
223356,215515,
223397,215534,
223420,215549,
223486,215574,
223513,215591,
223533,215606,
223576,215611,
223589,215620,
223655,215649,
223662,215653,
223697,215676,
223730,215691,
223745,215694,
223760,215683,
223807,215704,
223820,215714,
223805,215708,
223757,215666,
223654,215619,
223509,215551,
223337,215467,
223104,215366,
222866,215269,
222641,215160,
222404,215097,
222217,214999,
222066,214934,
221957,214899,
221879,214874,
221810,214860,
221777,214839,
221732,214830,
221733,214840,
221742,214839,
221717,214826,
221763,214843,
221756,214865,
221767,214841,
221741,214845,
221733,214818,
221742,214823,
221732,214819,
221744,214821,
221728,214815,
221755,214819,
221725,214820,
221737,214802,
221705,214805,
221711,214786,
221692,214787,
221704,214801,
221688,214795,
221679,214791,
221688,214799,
221698,214786,
221726,214818,
221761,214839,
221829,214860,
221889,214893,
221939,214918,
221985,214949,
222040,214948,
222080,214982,
222134,215003,
222183,215018,
222239,215051,
222285,215069,
222339,215087,
222374,215105,
222431,215109,
222455,215136,
222510,215141,
222526,215156,
222553,215159,
222575,215173,
222608,215179,
222646,215204,
222666,215201,
222691,215235,
222731,215244,
222752,215258,
222798,215258,
222832,215277,
222855,215295,
222877,215301,
222922,215322,
222950,215323,
222965,215362,
223028,215357,
223043,215367,
223057,215374,
223077,215403,
223091,215388,
223144,215402,
223135,215423,
223197,215432,
223228,215451,
223254,215461,
223278,215467,
223289,215459,
223313,215464,
223296,215461,
223255,215419,
223149,215391,
223022,215316,
222865,215237,
222640,215151,
222410,215045,
222169,214945,
221933,214847,
221732,214748,
221513,214672,
221343,214620,
221232,214584,
221184,214531,
221144,214539,
221121,214521,
221117,214529,
221103,214522,
221137,214542,
221133,214511,
221139,214495,
221141,214508,
221129,214519,
221104,214494,
221115,214486,
221112,214500,
221154,214530,
221172,214519,
221192,214529,
221199,214543,
221189,214534,
221177,214518,
221182,214509,
221161,214513,
221151,214516,
221161,214504,
221161,214516,
221184,214527,
221212,214547,
221227,214566,
221259,214564,
221291,214580,
221342,214606,
221377,214610,
221427,214648,
221482,214642,
221504,214683,
221573,214694,
221634,214721,
221657,214741,
221731,214754,
221776,214798,
221817,214785,
221874,214841,
221951,214842,
222016,214882,
222063,214911,
222120,214916,
222155,214954,
222219,214948,
222239,214986,
222289,214993,
222314,215013,
222372,215031,
222395,215044,
222433,215071,
222504,215071,
222526,215102,
222557,215123,
222583,215123,
222633,215139,
222676,215156,
222711,215178,
222762,215216,
222820,215232,
222881,215239,
222916,215272,
222960,215287,
222988,215302,
222998,215313,
223037,215327,
223068,215345,
223108,215352,
223134,215354,
223180,215379,
223251,215397,
223284,215416,
223324,215448,
223357,215460,
223385,215481,
223368,215462,
223307,215420,
223208,215361,
223031,215293,
222854,215199,
222600,215108,
222354,215009,
222120,214909,
221899,214791,
221696,214720,
221512,214648,
221351,214581,
221247,214539,
221188,214521,
221135,214513,
221127,214505,
221158,214511,
221122,214502,
221140,214519,
221110,214503,
221107,214488,
221079,214466,
221042,214463,
221049,214439,
221024,214453,
221048,214454,
221080,214454,
221075,214476,
221090,214454,
221087,214464,
221086,214461,
221078,214476,
221093,214473,
221068,214455,
221074,214459,
221090,214466,
221116,214458,
221117,214466,
221137,214473,
221147,214483,
221172,214510,
221222,214519,
221263,214528,
221291,214543,
221355,214563,
221393,214610,
221468,214627,
221525,214655,
221564,214663,
221619,214690,
221659,214720,
221729,214724,
221754,214751,
221786,214760,
221839,214769,
221863,214782,
221915,214799,
221960,214824,
222006,214839,
222029,214854,
222061,214886,
222107,214894,
222142,214912,
222203,214943,
222222,214938,
222284,214976,
222330,215003,
222378,215030,
222452,215041,
222508,215078,
222529,215094,
222566,215107,
222615,215124,
222653,215136,
222686,215150,
222735,215178,
222777,215200,
222809,215220,
222846,215222,
222890,215228,
222918,215246,
222928,215264,
222983,215281,
222998,215301,
223068,215322,
223094,215327,
223130,215341,
223165,215371,
223201,215385,
223214,215384,
223233,215388,
223307,215418,
223338,215429,
223350,215448,
223436,215476,
223500,215498,
223548,215537,
223590,215530,
223598,215561,
223617,215555,
223560,215517,
223432,215440,
223298,215387,
223068,215292,
222813,215169,
222556,215051,
222258,214943,
221979,214815,
221704,214707,
221487,214622,
221334,214548,
221203,214497,
221112,214465,
221033,214438,
221019,214423,
221003,214444,
221006,214434,
221007,214433,
221016,214426,
221021,214418,
220999,214395,
220967,214387,
220941,214401,
220931,214379,
220941,214365,
220932,214375,
220974,214368,
220972,214401,
220998,214409,
221010,214422,
221017,214403,
221026,214413,
221007,214418,
221024,214432,
221031,214424,
221060,214439,
221076,214443,
221096,214479,
221137,214487,
221181,214506,
221215,214519,
221240,214526,
221282,214543,
221321,214561,
221332,214577,
221373,214600,
221417,214628,
221488,214639,
221527,214659,
221574,214672,
221623,214700,
221656,214720,
221692,214725,
221711,214745,
221751,214742,
221743,214734,
221776,214752,
221803,214781,
221832,214768,
221861,214792,
221926,214811,
221945,214850,
221975,214855,
222030,214879,
222047,214881,
222077,214901,
222107,214921,
222132,214938,
222157,214939,
222233,214965,
222242,214978,
222288,214989,
222328,215029,
222333,215031,
222386,215050,
222399,215055,
222441,215072,
222476,215093,
222526,215110,
222560,215124,
222602,215133,
222633,215157,
222640,215159,
222653,215159,
222676,215154,
222702,215167,
222714,215171,
222755,215206,
222801,215227,
222839,215226,
222881,215243,
222883,215255,
222912,215271,
222930,215285,
222958,215281,
222962,215276,
222929,215246,
222797,215190,
222672,215122,
222460,215023,
222225,214920,
221894,214790,
221641,214672,
221362,214553,
221131,214455,
220955,214378,
220792,214319,
220726,214287,
220642,214260,
220627,214266,
220612,214247,
220647,214268,
220655,214255,
220661,214253,
220687,214267,
220677,214273,
220681,214253,
220675,214260,
220678,214262,
220704,214260,
220676,214241,
220710,214255,
220718,214258,
220743,214263,
220738,214273,
220757,214269,
220754,214265,
220727,214266,
220719,214247,
220723,214235,
220707,214251,
220742,214274,
220729,214269,
220776,214272,
220772,214273,
220827,214320,
220863,214327,
220881,214329,
220925,214353,
220978,214375,
221033,214404,
221075,214421,
221142,214449,
221188,214454,
221260,214481,
221328,214501,
221373,214540,
221410,214561,
221452,214564,
221489,214590,
221521,214612,
221570,214626,
221600,214629,
221655,214642,
221695,214670,
221732,214703,
221762,214700,
221793,214725,
221822,214746,
221868,214751,
221890,214769,
221931,214751,
221941,214785,
221973,214779,
221989,214802,
222026,214797,
222052,214819,
222079,214832,
222137,214860,
222180,214877,
222226,214911,
222253,214917,
222284,214914,
222337,214947,
222386,214948,
222411,214953,
222452,214987,
222496,214992,
222552,215021,
222536,215013,
222576,215039,
222594,215035,
222629,215043,
222668,215050,
222667,215070,
222726,215083,
222722,215079,
222754,215100,
222777,215110,
222819,215132,
222858,215140,
222886,215157,
222890,215146,
222874,215150,
222837,215110,
222741,215060,
222573,214981,
222368,214873,
222093,214752,
221793,214621,
221471,214462,
221154,214330,
220856,214200,
220581,214087,
220358,213993,
220200,213921,
220066,213878,
219965,213829,
219914,213835,
219886,213800,
219867,213793,
219863,213783,
219851,213787,
219847,213771,
219839,213769,
219820,213773,
219824,213758,
219801,213754,
219803,213744,
219828,213763,
219847,213751,
219883,213769,
219902,213777,
219919,213786,
219942,213792,
219947,213802,
219967,213803,
219972,213810,
220012,213818,
220015,213822,
220024,213813,
220029,213818,
220025,213817,
220037,213852,
220072,213857,
220113,213868,
220169,213901,
220217,213919,
220289,213954,
220326,213959,
220370,213981,
220390,213990,
220436,213992,
220496,214046,
220566,214054,
220636,214091,
220696,214112,
220732,214136,
220797,214159,
220837,214172,
220845,214177,
220879,214189,
220910,214209,
220920,214221,
220975,214238,
221008,214242,
221037,214261,
221118,214275,
221156,214303,
221184,214325,
221231,214337,
221267,214340,
221322,214381,
221349,214386,
221394,214404,
221407,214434,
221464,214442,
221517,214480,
221564,214494,
221631,214524,
221691,214535,
221735,214570,
221770,214594,
221795,214601,
221827,214618,
221865,214620,
221909,214624,
221936,214636,
221969,214654,
222003,214683,
222068,214696,
222091,214705,
222151,214733,
222193,214767,
222201,214770,
222231,214779,
222245,214794,
222260,214790,
222289,214796,
222317,214788,
222366,214830,
222410,214838,
222462,214872,
222489,214887,
222531,214910,
222586,214942,
222608,214934,
222611,214944,
222614,214946,
222576,214920,
222488,214862,
222304,214761,
222076,214648,
221793,214522,
221492,214384,
221132,214231,
220791,214078,
220513,213961,
220226,213850,
220018,213752,
219859,213703,
219762,213656,
219708,213641,
219674,213629,
219657,213620,
219684,213629,
219687,213630,
219690,213637,
219692,213639,
219703,213634,
219702,213626,
219712,213605,
219706,213604,
219739,213626,
219707,213628,
219754,213646,
219737,213638,
219786,213658,
219792,213637,
219792,213650,
219780,213648,
219779,213642,
219776,213658,
219792,213653,
219807,213650,
219842,213661,
219858,213670,
219890,213680,
219921,213700,
219958,213722,
219983,213748,
220030,213758,
220080,213794,
220146,213820,
220227,213844,
220258,213873,
220327,213885,
220385,213913,
220426,213956,
220497,213943,
220522,213977,
220578,214015,
220618,214017,
220661,214064,
220707,214057,
220737,214078,
220794,214102,
220839,214132,
220884,214152,
220932,214151,
220960,214170,
220979,214186,
221018,214190,
221045,214221,
221083,214234,
221110,214251,
221173,214278,
221221,214294,
221265,214320,
221309,214339,
221335,214344,
221364,214363,
221388,214384,
221420,214375,
221454,214406,
221491,214424,
221535,214442,
221587,214471,
221604,214460,
221641,214494,
221651,214500,
221674,214494,
221710,214511,
221731,214512,
221754,214534,
221796,214547,
221822,214584,
221874,214600,
221894,214594,
221929,214622,
221958,214629,
222006,214637,
222040,214660,
222070,214662,
222116,214702,
222175,214706,
222205,214730,
222245,214749,
222294,214769,
222345,214776,
222303,214766,
222220,214705,
222069,214640,
221854,214513,
221572,214382,
221271,214269,
220969,214125,
220682,214008,
220413,213899,
220194,213794,
220042,213738,
219916,213689,
219832,213650,
219805,213651,
219753,213634,
219762,213648,
219791,213640,
219817,213639,
219853,213654,
219862,213674,
219898,213657,
219913,213666,
219911,213656,
219908,213666,
219927,213669,
219945,213659,
219961,213680,
219962,213676,
219978,213672,
219927,213651,
219914,213645,
219877,213617,
219851,213596,
219833,213589,
219811,213587,
219801,213590,
219802,213608,
219820,213601,
219856,213618,
219880,213631,
219908,213642,
219935,213662,
219983,213672,
220046,213704,
220099,213725,
220175,213742,
220243,213777,
220311,213807,
220352,213825,
220425,213860,
220471,213878,
220535,213904,
220591,213926,
220636,213955,
220678,213972,
220739,213978,
220785,213999,
220821,214021,
220859,214030,
220926,214049,
220923,214050,
220973,214079,
221006,214099,
221050,214124,
221110,214130,
221137,214161,
221188,214183,
221228,214182,
221280,214215,
221309,214220,
221349,214241,
221393,214271,
221447,214282,
221467,214296,
221527,214311,
221558,214324,
221599,214341,
221633,214366,
221685,214370,
221729,214409,
221771,214424,
221813,214433,
221862,214449,
221909,214483,
221939,214482,
221983,214493,
222004,214512,
222034,214524,
222081,214530,
222112,214549,
222159,214580,
222185,214579,
222228,214606,
222293,214624,
222305,214644,
222369,214660,
222389,214665,
222406,214674,
222448,214677,
222436,214669,
222413,214654,
222301,214597,
222142,214505,
221926,214396,
221621,214251,
221314,214105,
220936,213956,
220603,213806,
220291,213665,
220040,213543,
219837,213458,
219677,213409,
219602,213382,
219541,213356,
219528,213371,
219515,213362,
219544,213365,
219570,213400,
219594,213404,
219610,213394,
219632,213415,
219667,213417,
219674,213414,
219680,213421,
219705,213422,
219694,213406,
219696,213422,
219712,213408,
219698,213398,
219692,213405,
219673,213385,
219656,213395,
219672,213380,
219672,213367,
219662,213384,
219651,213377,
219669,213388,
219646,213378,
219669,213370,
219694,213378,
219701,213389,
219749,213415,
219785,213422,
219848,213461,
219920,213491,
219974,213517,
220036,213539,
220107,213578,
220167,213581,
220236,213615,
220256,213621,
220316,213674,
220361,213677,
220403,213687,
220468,213714,
220523,213735,
220568,213751,
220612,213771,
220667,213796,
220700,213825,
220749,213829,
220756,213834,
220819,213860,
220838,213865,
220874,213881,
220914,213909,
220973,213923,
220998,213929,
221040,213950,
221047,213962,
221089,213967,
221123,214001,
221181,214002,
221215,214023,
221243,214047,
221310,214096,
221352,214109,
221438,214122,
221484,214157,
221537,214165,
221583,214196,
221603,214224,
221664,214230,
221711,214249,
221734,214258,
221762,214285,
221799,214289,
221853,214290,
221873,214321,
221888,214330,
221919,214353,
221956,214343,
222014,214379,
222030,214396,
222063,214412,
222089,214431,
222139,214441,
222171,214449,
222164,214441,
222121,214424,
222014,214370,
221860,214258,
221610,214145,
221334,214007,
221031,213871,
220689,213712,
220396,213587,
220089,213468,
219841,213347,
219650,213278,
219505,213210,
219383,213163,
219315,213138,
219279,213128,
219273,213119,
219284,213122,
219328,213134,
219334,213143,
219376,213166,
219374,213142,
219370,213135,
219377,213146,
219379,213133,
219373,213136,
219403,213147,
219431,213153,
219474,213161,
219478,213159,
219478,213164,
219476,213182,
219495,213159,
219466,213156,
219475,213161,
219474,213169,
219487,213167,
219504,213181,
219514,213181,
219552,213205,
219574,213225,
219610,213248,
219657,213260,
219694,213271,
219738,213298,
219840,213315,
219874,213336,
219937,213392,
220011,213433,
220094,213453,
220146,213476,
220217,213510,
220285,213547,
220319,213556,
220382,213588,
220417,213594,
220451,213610,
220490,213630,
220538,213659,
220582,213682,
220613,213711,
220662,213717,
220689,213726,
220727,213723,
220741,213737,
220763,213742,
220794,213766,
220806,213764,
220862,213782,
220884,213807,
220935,213828,
220984,213847,
221036,213862,
221094,213887,
221132,213909,
221189,213938,
221247,213977,
221292,213986,
221338,214000,
221409,214046,
221461,214073,
221506,214087,
221553,214110,
221613,214138,
221664,214157,
221683,214170,
221736,214183,
221776,214200,
221816,214218,
221865,214237,
221906,214250,
221914,214257,
221965,214283,
221975,214282,
221969,214271,
221886,214228,
221756,214155,
221546,214035,
221289,213905,
220993,213786,
220692,213660,
220412,213513,
220153,213404,
219937,213317,
219769,213243,
219636,213203,
219584,213158,
219517,213142,
219484,213126,
219482,213138,
219466,213134,
219496,213147,
219524,213145,
219538,213153,
219565,213170,
219585,213160,
219609,213170,
219656,213177,
219682,213203,
219689,213213,
219707,213198,
219696,213204,
219731,213202,
219707,213190,
219705,213183,
219716,213194,
219699,213211,
219699,213184,
219678,213161,
219689,213167,
219691,213173,
219681,213162,
219691,213176,
219700,213173,
219729,213171,
219774,213201,
219825,213235,
219883,213258,
219939,213280,
220002,213301,
220039,213322,
220094,213360,
220146,213373,
220192,213377,
220254,213407,
220297,213441,
220345,213454,
220397,213463,
220431,213483,
220478,213496,
220508,213511,
220551,213503,
220572,213528,
220585,213538,
220630,213546,
220641,213551,
220675,213566,
220728,213576,
220746,213591,
220801,213622,
220836,213632,
220890,213655,
220910,213672,
220924,213678,
220977,213697,
220965,213693,
221002,213707,
221044,213720,
221103,213734,
221144,213762,
221171,213782,
221209,213803,
221242,213765,
221269,213820,
221323,213835,
221348,213859,
221400,213860,
221443,213881,
221497,213919,
221534,213937,
221582,213947,
221628,213962,
221629,213964,
221594,213932,
221506,213876,
221340,213775,
221148,213679,
220878,213555,
220601,213423,
220316,213291,
220048,213161,
219785,213054,
219596,212975,
219436,212915,
219338,212867,
219250,212823,
219206,212814,
219186,212800,
219185,212811,
219204,212823,
219216,212809,
219258,212831,
219261,212825,
219277,212836,
219287,212829,
219289,212814,
219294,212823,
219310,212817,
219319,212825,
219346,212825,
219366,212845,
219371,212821,
219365,212852,
219374,212846,
219377,212848,
219365,212847,
219370,212833,
219359,212835,
219370,212829,
219372,212835,
219382,212848,
219443,212841,
219455,212883,
219519,212871,
219571,212925,
219643,212931,
219682,212981,
219701,212990,
219805,213009,
219860,213041,
219889,213066,
219967,213075,
220036,213113,
220092,213128,
220152,213169,
220217,213179,
220265,213204,
220297,213224,
220327,213240,
220333,213256,
220371,213255,
220384,213254,
220420,213260,
220442,213275,
220482,213298,
220509,213306,
220561,213327,
220599,213330,
220626,213364,
220686,213384,
220724,213404,
220764,213417,
220806,213440,
220856,213455,
220901,213480,
220939,213489,
220968,213501,
220987,213519,
221020,213541,
221069,213543,
221124,213571,
221187,213604,
221249,213637,
221335,213650,
221396,213688,
221463,213722,
221508,213761,
221566,213773,
221608,213792,
221676,213831,
221730,213854,
221786,213871,
221837,213886,
221866,213910,
221862,213913,
221786,213864,
221695,213801,
221518,213713,
221267,213630,
221025,213460,
220722,213335,
220452,213194,
220193,213106,
219966,212986,
219756,212914,
219611,212846,
219516,212808,
219415,212771,
219376,212776,
219386,212758,
219384,212782,
219417,212784,
219444,212779,
219453,212800,
219504,212797,
219466,212796,
219504,212813,
219504,212799,
219535,212799,
219526,212793,
219576,212832,
219595,212852,
219608,212863,
219622,212853,
219623,212856,
219643,212863,
219667,212861,
219634,212868,
219646,212843,
219643,212860,
219654,212865,
219688,212885,
219686,212881,
219716,212907,
219735,212933,
219787,212946,
219843,212960,
219868,212973,
219926,212993,
219987,213032,
220034,213047,
220071,213082,
220144,213104,
220193,213128,
220266,213162,
220324,213190,
220369,213199,
220403,213236,
220457,213232,
220477,213251,
220518,213273,
220522,213277,
220575,213296,
220592,213322,
220643,213330,
220673,213356,
220702,213372,
220722,213351,
220736,213385,
220755,213390,
220778,213419,
220813,213415,
220824,213421,
220856,213444,
220906,213462,
220922,213481,
220971,213506,
221006,213502,
221046,213532,
221083,213548,
221114,213558,
221151,213585,
221211,213616,
221249,213631,
221291,213651,
221339,213664,
221387,213696,
221425,213706,
221476,213729,
221486,213730,
221509,213731,
221500,213722,
221463,213695,
221347,213640,
221190,213558,
221001,213468,
220741,213338,
220480,213241,
220229,213131,
219985,213011,
219769,212922,
219598,212871,
219493,212803,
219413,212772,
219361,212786,
219363,212798,
219344,212776,
219366,212791,
219387,212791,
219411,212805,
219425,212792,
219421,212785,
219438,212791,
219437,212794,
219457,212802,
219475,212820,
219524,212825,
219523,212843,
219554,212860,
219566,212853,
219594,212853,
219582,212846,
219579,212841,
219551,212838,
219565,212830,
219556,212837,
219550,212839,
219557,212849,
219564,212833,
219586,212832,
219625,212855,
219651,212875,
219688,212884,
219724,212902,
219759,212916,
219810,212938,
219863,212985,
219926,212978,
219980,213021,
220042,213045,
220091,213054,
220123,213072,
220150,213088,
220186,213095,
220206,213111,
220239,213135,
220247,213132,
220294,213142,
220332,213160,
220349,213160,
220384,213174,
220388,213190,
220426,213215,
220458,213233,
220508,213246,
220547,213254,
220568,213267,
220625,213320,
220657,213335,
220709,213358,
220753,213367,
220791,213394,
220833,213415,
220879,213438,
220914,213462,
220943,213458,
221003,213481,
221037,213490,
221069,213517,
221111,213509,
221132,213546,
221169,213549,
221196,213552,
221161,213533,
221118,213499,
221006,213443,
220819,213344,
220603,213243,
220361,213133,
220101,212994,
219834,212877,
219576,212771,
219360,212700,
219211,212622,
219075,212575,
219005,212519,
218935,212512,
218905,212484,
218880,212486,
218884,212491,
218896,212493,
218908,212486,
218921,212482,
218929,212469,
218901,212478,
218931,212468,
218921,212473,
218936,212472,
218942,212485,
218971,212486,
219012,212498,
219029,212511,
219071,212519,
219077,212537,
219092,212550,
219113,212542,
219108,212547,
219112,212557,
219124,212559,
219132,212567,
219149,212579,
219182,212571,
219211,212595,
219230,212604,
219267,212612,
219308,212634,
219348,212651,
219414,212677,
219458,212721,
219538,212739,
219580,212759,
219636,212767,
219686,212793,
219717,212833,
219799,212845,
219849,212877,
219907,212909,
219937,212922,
220002,212948,
220034,212955,
220082,212983,
220139,213033,
220200,213029,
220240,213055,
220286,213086,
220330,213104,
220363,213104,
220394,213147,
220446,213166,
220501,213184,
220560,213214,
220608,213243,
220660,213260,
220706,213294,
220785,213324,
220822,213341,
220888,213361,
220933,213389,
220998,213426,
221058,213438,
221106,213491,
221179,213497,
221231,213533,
221272,213542,
221320,213567,
221367,213588,
221411,213615,
221447,213652,
221511,213649,
221524,213663,
221574,213691,
221608,213715,
221617,213710,
221588,213678,
221486,213626,
221328,213542,
221119,213458,
220887,213340,
220648,213213,
220407,213113,
220205,213025,
220004,212955,
219852,212908,
219736,212832,
219668,212804,
219626,212802,
219579,212797,
219584,212789,
219586,212794,
219637,212821,
219664,212808,
219665,212836,
219714,212816,
219700,212828,
219697,212835,
219690,212838,
219703,212844,
219753,212857,
219782,212879,
219839,212895,
219891,212938,
219967,212954,
220006,212989,
220037,213004,
220084,213017,
220089,213039,
220118,213032,
220149,213042,
220167,213061,
220191,213062,
220216,213093,
220276,213113,
220314,213131,
220366,213158,
220420,213201,
220462,213215,
220521,213226,
220568,213255,
220631,213295,
220678,213316,
220741,213343,
220794,213355,
220850,213392,
220881,213421,
220948,213428,
220961,213450,
221003,213470,
221078,213487,
221112,213516,
221160,213519,
221212,213563,
221239,213577,
221288,213609,
221344,213617,
221385,213640,
221422,213668,
221471,213674,
221528,213716,
221595,213757,
221647,213782,
221698,213805,
221755,213834,
221794,213865,
221838,213874,
221883,213883,
221924,213925,
221979,213933,
222037,213977,
222095,213992,
222173,214028,
222193,214049,
222233,214059,
222284,214081,
222328,214108,
222398,214140,
222427,214169,
222488,214192,
222542,214215,
222614,214236,
222678,214286,
222733,214316,
222789,214334,
222848,214362,
222897,214401,
222939,214406,
222932,214397,
222910,214374,
222814,214316,
222693,214267,
222504,214182,
222339,214087,
222151,214013,
221931,213924,
221759,213844,
221616,213789,
221502,213726,
221424,213696,
221350,213675,
221328,213683,
221334,213697,
221342,213688,
221379,213706,
221366,213690,
221383,213689,
221402,213702,
221432,213697,
221442,213731,
221449,213731,
221453,213717,
221477,213729,
221521,213757,
221555,213778,
221581,213796,
221612,213810,
221652,213832,
221672,213821,
221689,213852,
221708,213850,
221719,213864,
221718,213867,
221742,213867,
221784,213887,
221789,213902,
221821,213914,
221871,213927,
221920,213954,
221970,213988,
222001,213996,
222040,214009,
222084,214020,
222139,214072,
222165,214093,
222216,214086,
222263,214105,
222321,214119,
222335,214137,
222362,214159,
222380,214173,
222401,214166,
222429,214166,
222453,214175,
222485,214193,
222512,214207,
222569,214233,
222591,214241,
222630,214267,
222684,214266,
222707,214299,
222754,214300,
222773,214332,
222806,214334,
222871,214360,
222904,214388,
222942,214408,
223013,214430,
223079,214448,
223114,214467,
223137,214494,
223175,214495,
223214,214511,
223250,214539,
223311,214549,
223312,214557,
223356,214554,
223404,214581,
223430,214572,
223455,214617,
223466,214609,
223503,214624,
223536,214632,
223562,214651,
223606,214669,
223627,214696,
223655,214701,
223691,214689,
223704,214702,
223665,214685,
223614,214631,
223515,214602,
223398,214523,
223219,214431,
223031,214343,
222837,214250,
222618,214166,
222437,214067,
222316,214025,
222207,213981,
222107,213932,
222075,213932,
222036,213904,
222030,213900,
222019,213905,
222018,213897,
222002,213898,
221994,213885,
221996,213885,
221965,213878,
221950,213854,
221930,213844,
221918,213840,
221946,213829,
221958,213859,
221979,213875,
222021,213877,
222047,213908,
222103,213921,
222127,213947,
222154,213945,
222169,213968,
222185,213960,
222190,213975,
222194,213973,
222195,213970,
222219,213975,
222257,213974,
222281,213992,
222316,214013,
222341,214032,
222403,214040,
222449,214058,
222466,214094,
222530,214119,
222550,214117,
222588,214132,
222630,214155,
222663,214160,
222710,214189,
222757,214205,
222780,214223,
222815,214248,
222870,214266,
222899,214270,
222903,214273,
222934,214290,
222985,214312,
223007,214315,
223049,214333,
223084,214359,
223122,214386,
223173,214397,
223222,214411,
223270,214421,
223301,214457,
223342,214479,
223406,214499,
223421,214511,
223460,214529,
223486,214548,
223537,214551,
223598,214570,
223619,214580,
223677,214620,
223716,214636,
223761,214657,
223797,214668,
223822,214700,
223874,214698,
223880,214725,
223925,214735,
223958,214743,
223990,214761,
224040,214769,
224071,214781,
224071,214789,
224107,214819,
224145,214819,
224172,214843,
224185,214861,
224224,214874,
224258,214881,
224310,214896,
224354,214914,
224402,214954,
224435,214975,
224506,214998,
224554,215011,
224568,215031,
224543,214992,
224480,214977,
224379,214919,
224232,214851,
224081,214763,
223899,214669,
223686,214593,
223494,214489,
223314,214423,
223157,214345,
223016,214298,
222900,214263,
222837,214216,
222769,214197,
222734,214197,
222699,214158,
222680,214162,
222640,214144,
222615,214121,
222622,214109,
222557,214101,
222550,214084,
222516,214066,
222488,214048,
222485,214050,
222452,214037,
222451,214027,
222486,214054,
222465,214040,
222494,214043,
222495,214049,
222505,214071,
222515,214063,
222518,214059,
222526,214074,
222522,214069,
222552,214076,
222561,214080,
222581,214098,
222618,214111,
222659,214129,
222692,214165,
222739,214172,
222777,214207,
222827,214222,
222874,214262,
222906,214268,
222939,214284,
222963,214290,
222987,214307,
223028,214317,
223065,214338,
223114,214339,
223140,214361,
223161,214389,
223203,214387,
223239,214410,
223272,214437,
223298,214442,
223339,214477,
223369,214471,
223403,214487,
223452,214491,
223483,214520,
223508,214538,
223554,214568,
223566,214563,
223592,214593,
223623,214603,
223659,214621,
223711,214635,
223753,214675,
223796,214661,
223813,214692,
223860,214717,
223887,214715,
223899,214718,
223950,214735,
223967,214775,
223983,214783,
224002,214779,
224024,214785,
224050,214810,
224079,214822,
224133,214829,
224176,214856,
224215,214871,
224251,214892,
224273,214902,
224302,214908,
224330,214927,
224353,214945,
224421,214979,
224464,214991,
224483,215028,
224536,215019,
224581,215054,
224602,215051,
224564,215036,
224508,215009,
224410,214936,
224274,214866,
224117,214789,
223925,214724,
223749,214654,
223597,214577,
223457,214508,
223343,214476,
223227,214433,
223174,214408,
223103,214384,
223067,214364,
223026,214347,
223006,214365,
222990,214329,
222976,214317,
222973,214305,
222955,214312,
222920,214278,
222913,214272,
222895,214244,
222867,214242,
222852,214246,
222832,214242,
222850,214240,
222851,214229,
222841,214230,
222855,214235,
222853,214248,
222842,214236,
222823,214215,
222811,214192,
222784,214185,
222770,214157,
222752,214168,
222760,214172,
222790,214186,
222843,214193,
222858,214227,
222913,214232,
222953,214257,
223003,214269,
223034,214292,
223088,214302,
223137,214342,
223179,214348,
223208,214372,
223280,214367,
223299,214415,
223353,214422,
223391,214441,
223426,214452,
223475,214461,
223514,214481,
223523,214494,
223575,214502,
223591,214507,
223609,214508,
223625,214533,
223680,214547,
223707,214553,
223730,214571,
223753,214591,
223830,214620,
223899,214658,
223947,214662,
223974,214686,
224053,214718,
224081,214727,
224104,214745,
224155,214759,
224175,214774,
224222,214794,
224262,214789,
224294,214835,
224334,214835,
224362,214862,
224396,214877,
224424,214867,
224445,214865,
224470,214892,
224489,214908,
224502,214923,
224529,214923,
224561,214935,
224588,214945,
224618,214949,
224662,214961,
224679,214978,
224710,214985,
224738,215008,
224754,215010,
224745,214995,
224705,214951,
224588,214910,
224449,214836,
224293,214754,
224139,214654,
223914,214559,
223680,214450,
223491,214385,
223311,214282,
223147,214243,
223036,214182,
222937,214140,
222877,214120,
222821,214094,
222808,214087,
222797,214077,
222805,214074,
222778,214070,
222796,214055,
222762,214067,
222759,214055,
222743,214032,
222726,214032,
222731,214031,
222720,214033,
222738,214053,
222750,214032,
222743,214041,
222778,214040,
222741,214059,
222779,214055,
222786,214071,
222795,214069,
222779,214064,
222783,214052,
222780,214041,
222773,214058,
222786,214050,
222794,214064,
222808,214068,
222848,214077,
222905,214113,
222938,214125,
222998,214145,
223033,214177,
223078,214202,
223110,214201,
223147,214226,
223170,214233,
223227,214263,
223265,214286,
223304,214300,
223349,214299,
223392,214332,
223415,214350,
223469,214356,
223490,214371,
223542,214386,
223577,214400,
223597,214406,
223646,214445,
223672,214449,
223704,214459,
223740,214489,
223775,214493,
223797,214515,
223816,214516,
223845,214529,
223875,214547,
223909,214557,
223954,214587,
223989,214590,
224013,214609,
224064,214610,
224081,214648,
224150,214667,
224169,214667,
224220,214717,
224221,214705,
224273,214711,
224282,214730,
224302,214720,
224330,214748,
224368,214782,
224400,214786,
224444,214801,
224473,214812,
224518,214834,
224541,214844,
224599,214857,
224606,214882,
224636,214902,
224657,214907,
224696,214922,
224730,214934,
224774,214957,
224780,214968,
224793,214956,
224779,214937,
224752,214920,
224655,214889,
224523,214801,
224352,214731,
224173,214621,
223947,214530,
223729,214425,
223503,214316,
223325,214252,
223145,214162,
223034,214139,
222953,214084,
222899,214080,
222887,214080,
222888,214066,
222856,214081,
222864,214055,
222873,214065,
222890,214068,
222877,214070,
222889,214072,
222872,214075,
222894,214068,
222872,214071,
222893,214067,
222870,214064,
222899,214066,
222917,214072,
222904,214076,
222929,214090,
222909,214070,
222924,214088,
222936,214101,
222934,214092,
222966,214101,
222966,214122,
223012,214141,
223043,214152,
223066,214181,
223093,214191,
223150,214209,
223185,214214,
223243,214241,
223256,214289,
223332,214302,
223373,214337,
223423,214362,
223482,214366,
223510,214402,
223551,214405,
223606,214431,
223650,214454,
223682,214478,
223700,214494,
223754,214511,
223803,214518,
223813,214541,
223846,214545,
223885,214573,
223912,214585,
223966,214594,
223982,214609,
224019,214657,
224084,214659,
224091,214677,
224126,214679,
224145,214685,
224170,214715,
224199,214741,
224262,214744,
224282,214765,
224331,214795,
224403,214818,
224446,214840,
224476,214860,
224522,214867,
224552,214906,
224586,214913,
224600,214932,
224663,214939,
224682,214958,
224746,214980,
224815,215021,
224855,215043,
224917,215070,
224969,215094,
225016,215129,
225057,215121,
225096,215141,
225123,215157,
225137,215193,
225154,215168,
225140,215167,
225091,215117,
224967,215074,
224821,214990,
224644,214890,
224455,214828,
224232,214739,
224037,214659,
223871,214571,
223744,214514,
223645,214484,
223571,214459,
223553,214463,
223536,214452,
223532,214458,
223528,214468,
223514,214458,
223519,214458,
223517,214451,
223503,214435,
223522,214439,
223545,214445,
223557,214451,
223570,214443,
223588,214442,
223604,214457,
223604,214463,
223579,214463,
223585,214442,
223576,214430,
223540,214449,
223532,214397,
223486,214403,
223491,214398,
223465,214379,
223464,214382,
223455,214379,
223453,214383,
223444,214389,
223468,214370,
223491,214388,
223508,214391,
223539,214410,
223606,214420,
223646,214466,
223696,214476,
223751,214504,
223806,214528,
223850,214548,
223889,214563,
223926,214575,
223974,214596,
223996,214613,
224045,214623,
224080,214635,
224096,214647,
224149,214650,
224150,214685,
224207,214686,
224231,214690,
224261,214716,
224298,214721,
224307,214752,
224351,214744,
224369,214753,
224398,214759,
224410,214762,
224447,214790,
224464,214810,
224496,214813,
224525,214828,
224539,214843,
224575,214855,
224596,214843,
224624,214858,
224647,214873,
224683,214876,
224697,214888,
224718,214893,
224747,214888,
224790,214916,
224804,214919,
224828,214924,
224842,214940,
224870,214940,
224901,214945,
224879,214959,
224842,214911,
224777,214903,
224678,214821,
224542,214742,
224333,214648,
224137,214566,
223919,214458,
223716,214356,
223507,214283,
223347,214211,
223211,214143,
223127,214121,
223091,214104,
223070,214108,
223050,214108,
223052,214116,
223056,214119,
223079,214130,
223081,214122,
223108,214114,
223098,214122,
223084,214116,
223069,214107,
223055,214093,
223073,214101,
223109,214104,
223111,214114,
223143,214109,
223135,214101,
223133,214115,
223101,214093,
223081,214083,
223074,214091,
223069,214078,
223074,214078,
223089,214085,
223085,214067,
223104,214095,
223117,214106,
223141,214108,
223160,214131,
223179,214144,
223212,214136,
223233,214149,
223281,214163,
223331,214205,
223394,214238,
223422,214243,
223493,214266,
223527,214287,
223561,214311,
223575,214313,
223609,214327,
223654,214331,
223679,214354,
223711,214353,
223751,214375,
223775,214371,
223805,214388,
223818,214405,
223852,214414,
223857,214416,
223894,214425,
223925,214452,
223936,214444,
223966,214462,
223962,214448,
223989,214467,
224007,214484,
224030,214493,
224071,214511,
224084,214535,
224103,214531,
224124,214527,
224147,214537,
224160,214543,
224178,214555,
224219,214556,
224238,214573,
224265,214585,
224295,214607,
224318,214608,
224373,214633,
224392,214656,
224407,214641,
224431,214644,
224451,214664,
224468,214673,
224481,214674,
224522,214663,
224528,214695,
224553,214689,
224580,214694,
224652,214747,
224670,214750,
224639,214728,
224570,214657,
224436,214605,
224267,214511,
224030,214410,
223815,214299,
223577,214212,
223391,214111,
223190,214052,
223045,213965,
222950,213944,
222858,213913,
222818,213902,
222796,213887,
222748,213871,
222727,213865,
222723,213871,
222718,213877,
222740,213851,
222743,213864,
222744,213865,
222751,213852,
222731,213864,
222727,213829,
222733,213826,
222695,213819,
222693,213819,
222712,213828,
222694,213826,
222727,213829,
222704,213840,
222710,213838,
222716,213830,
222703,213819,
222688,213828,
222670,213817,
222655,213806,
222670,213816,
222678,213832,
222730,213858,
222763,213874,
222798,213874,
222846,213912,
222879,213913,
222910,213933,
222962,213963,
222994,213973,
223053,214007,
223091,214016,
223129,214035,
223185,214055,
223237,214091,
223295,214114,
223332,214137,
223380,214174,
223437,214200,
223483,214206,
223526,214218,
223567,214230,
223575,214268,
223603,214279,
223648,214301,
223707,214319,
223757,214340,
223799,214377,
223832,214393,
223878,214402,
223905,214412,
223931,214439,
223984,214458,
224011,214474,
224060,214492,
224084,214526,
224131,214542,
224178,214561,
224219,214574,
224244,214598,
224294,214614,
224299,214635,
224346,214634,
224381,214644,
224382,214676,
224439,214696,
224471,214699,
224513,214725,
224540,214724,
224574,214748,
224620,214760,
224655,214796,
224691,214806,
224690,214812,
224712,214810,
224697,214803,
224642,214755,
224551,214704,
224421,214622,
224227,214549,
224032,214446,
223816,214341,
223585,214255,
223405,214177,
223223,214113,
223104,214046,
223004,214014,
222928,213992,
222911,213995,
222858,213981,
222880,213969,
222869,213954,
222878,213973,
222876,213976,
222898,213970,
222900,213990,
222929,213981,
222944,213992,
222963,213984,
222976,213985,
223003,214017,
223032,214025,
223046,214026,
223056,214030,
223059,214051,
223079,214041,
223067,214050,
223047,214036,
223056,214033,
223043,214041,
223045,214022,
223033,214027,
223019,214010,
223044,214032,
223061,214030,
223085,214051,
223102,214073,
223142,214077,
223181,214099,
223212,214105,
223267,214132,
223295,214149,
223342,214154,
223378,214191,
223426,214188,
223470,214208,
223492,214226,
223507,214241,
223553,214243,
223578,214249,
223633,214279,
223640,214289,
223676,214303,
223705,214307,
223728,214330,
223764,214338,
223768,214337,
223784,214350,
223829,214352,
223857,214359,
223885,214380,
223919,214389,
223960,214409,
223997,214446,
224010,214439,
224058,214462,
224088,214476,
224118,214469,
224158,214483,
224161,214491,
224204,214498,
224217,214503,
224240,214513,
224253,214514,
224271,214526,
224298,214539,
224330,214526,
224345,214538,
224369,214538,
224382,214555,
224431,214568,
224449,214601,
224504,214584,
224531,214616,
224554,214628,
224555,214626,
224511,214588,
224441,214538,
224303,214451,
224109,214376,
223910,214270,
223684,214159,
223484,214055,
223277,213974,
223100,213896,
222954,213842,
222823,213785,
222740,213734,
222686,213723,
222624,213706,
222623,213707,
222617,213698,
222631,213685,
222613,213698,
222601,213696,
222609,213676,
222608,213665,
222565,213649,
222578,213629,
222561,213635,
222563,213634,
222583,213641,
222596,213626,
222613,213638,
222612,213638,
222596,213630,
222602,213632,
222602,213627,
222614,213643,
222599,213637,
222596,213624,
222604,213631,
222623,213630,
222625,213625,
222624,213655,
222664,213655,
222683,213645,
222711,213675,
222759,213688,
222806,213709,
222839,213737,
222887,213734,
222908,213749,
222948,213771,
222970,213792,
223016,213793,
223047,213803,
223082,213825,
223115,213853,
223157,213853,
223188,213875,
223216,213874,
223241,213888,
223290,213906,
223287,213925,
223334,213935,
223372,213955,
223391,213957,
223422,213977,
223437,213993,
223473,214000,
223508,214019,
223539,214016,
223569,214039,
223587,214062,
223600,214061,
223639,214070,
223664,214078,
223706,214083,
223750,214107,
223767,214121,
223809,214138,
223853,214139,
223861,214180,
223894,214183,
223934,214185,
223947,214206,
223969,214208,
224018,214220,
224037,214241,
224079,214249,
224088,214256,
224104,214258,
224142,214274,
224160,214291,
224185,214294,
224205,214297,
224244,214311,
224264,214318,
224297,214338,
224321,214353,
224374,214364,
224393,214376,
224407,214390,
224423,214388,
224416,214401,
224412,214369,
224333,214344,
224208,214266,
224033,214193,
223849,214080,
223640,213987,
223406,213879,
223168,213762,
222945,213676,
222782,213595,
222619,213539,
222490,213489,
222442,213455,
222371,213436,
222336,213413,
222320,213405,
222305,213416,
222285,213418,
222269,213382,
222276,213385,
222255,213367,
222205,213356,
222201,213338,
222158,213323,
222153,213326,
222155,213308,
222161,213308,
222174,213320,
222163,213325,
222164,213307,
222160,213303,
222153,213300,
222158,213333,
222147,213335,
222147,213319,
222132,213318,
222145,213321,
222134,213319,
222145,213331,
222181,213335,
222204,213361,
222228,213384,
222269,213388,
222311,213418,
222358,213434,
222405,213464,
222449,213463,
222483,213511,
222533,213500,
222586,213529,
222623,213548,
222656,213576,
222702,213591,
222739,213611,
222775,213628,
222822,213641,
222865,213658,
222891,213672,
222903,213693,
222951,213710,
222963,213714,
222984,213740,
223035,213739,
223053,213772,
223103,213791,
223120,213803,
223149,213808,
223196,213834,
223216,213857,
223251,213854,
223279,213871,
223304,213868,
223330,213900,
223384,213920,
223394,213930,
223454,213950,
223496,213968,
223536,214005,
223573,214006,
223615,214028,
223659,214042,
223686,214059,
223701,214072,
223733,214083,
223765,214109,
223807,214100,
223823,214127,
223874,214151,
223895,214163,
223914,214158,
223929,214189,
223973,214192,
223999,214201,
224016,214212,
224053,214237,
224108,214234,
224148,214269,
224190,214302,
224221,214319,
224257,214332,
224309,214358,
224345,214372,
224397,214399,
224398,214380,
224354,214371,
224282,214318,
224168,214272,
224015,214180,
223803,214104,
223619,214002,
223427,213900,
223202,213801,
223027,213744,
222890,213690,
222792,213648,
222701,213627,
222637,213603,
222620,213585,
222582,213592,
222610,213599,
222609,213583,
222602,213598,
222606,213596,
222610,213596,
222618,213584,
222607,213585,
222566,213565,
222595,213560,
222593,213565,
222595,213574,
222608,213575,
222607,213579,
222621,213587,
222597,213567,
222591,213572,
222593,213548,
222566,213544,
222544,213536,
222525,213541,
222560,213547,
222551,213539,
222541,213539,
222577,213556,
222597,213574,
222624,213583,
222668,213586,
222681,213580,
222712,213606,
222745,213639,
222792,213638,
222841,213649,
222906,213663,
222935,213706,
222955,213705,
222997,213747,
223037,213755,
223093,213756,
223111,213781,
223153,213773,
223175,213806,
223230,213835,
223244,213831,
223270,213858,
223277,213863,
223315,213870,
223327,213881,
223376,213897,
223409,213900,
223437,213932,
223469,213946,
223495,213952,
223526,213965,
223574,213984,
223595,213991,
223649,214025,
223684,214010,
223729,214045,
223743,214058,
223766,214066,
223795,214082,
223847,214091,
223858,214109,
223909,214123,
223920,214138,
223937,214147,
223977,214138,
223989,214146,
223998,214150,
224035,214153,
224059,214150,
224087,214194,
224118,214199,
224168,214187,
224173,214228,
224210,214247,
224238,214238,
224241,214258,
224279,214275,
224278,214262,
224238,214238,
224171,214174,
224023,214122,
223877,214018,
223679,213926,
223458,213818,
223230,213728,
223021,213640,
222829,213548,
222662,213475,
222516,213425,
222450,213390,
222388,213378,
222330,213347,
222296,213339,
222287,213327,
222285,213312,
222254,213313,
222248,213311,
222240,213304,
222194,213275,
222204,213267,
222161,213266,
222167,213242,
222153,213252,
222170,213226,
222146,213233,
222169,213244,
222160,213241,
222187,213258,
222172,213253,
222165,213255,
222161,213239,
222153,213255,
222132,213231,
222124,213240,
222138,213215,
222176,213250,
222169,213257,
222213,213258,
222220,213272,
222254,213298,
222276,213302,
222318,213330,
222353,213340,
222413,213369,
222434,213379,
222489,213403,
222523,213402,
222566,213439,
222600,213449,
222644,213472,
222676,213468,
222679,213496,
222711,213489,
222735,213512,
222750,213490,
222781,213529,
222817,213536,
222822,213552,
222861,213560,
222887,213577,
222911,213588,
222932,213596,
222953,213603,
222968,213605,
222998,213616,
223007,213631,
223067,213653,
223111,213671,
223156,213688,
223176,213691,
223216,213713,
223245,213730,
223254,213744,
223299,213746,
223306,213755,
223347,213779,
223370,213784,
223426,213816,
223455,213818,
223493,213845,
223514,213821,
223556,213851,
223585,213859,
223603,213886,
223615,213884,
223636,213902,
223660,213906,
223694,213920,
223711,213936,
223741,213948,
223776,213953,
223813,213966,
223814,213983,
223835,213983,
223878,213998,
223892,213998,
223906,214003,
223939,214015,
223925,214014,
223933,214021,
223895,213990,
223776,213933,
223634,213871,
223449,213764,
223256,213669,
223008,213568,
222774,213450,
222545,213361,
222346,213260,
222184,213196,
222050,213142,
221944,213099,
221889,213087,
221831,213072,
221807,213059,
221796,213074,
221780,213063,
221769,213057,
221774,213055,
221758,213046,
221733,213034,
221701,213028,
221691,213009,
221683,213006,
221670,213001,
221685,213012,
221687,213009,
221720,213032,
221738,213060,
221740,213056,
221764,213067,
221742,213068,
221722,213051,
221761,213063,
221735,213065,
221756,213085,
221750,213081,
221773,213088,
221800,213104,
221813,213120,
221855,213137,
221871,213145,
221922,213171,
221959,213206,
222000,213217,
222034,213243,
222069,213267,
222136,213276,
222174,213311,
222195,213327,
222236,213339,
222239,213353,
222295,213365,
222331,213381,
222349,213387,
222396,213428,
222436,213426,
222467,213458,
222500,213485,
222541,213500,
222564,213513,
222609,213528,
222610,213535,
222670,213553,
222695,213579,
222737,213608,
222754,213628,
222795,213643,
222834,213648,
222876,213679,
222900,213686,
222933,213711,
222950,213707,
222995,213717,
223030,213747,
223058,213768,
223103,213777,
223129,213794,
223139,213811,
223205,213828,
223214,213840,
223235,213847,
223270,213852,
223307,213879,
223329,213887,
223348,213902,
223366,213921,
223404,213941,
223432,213930,
223475,213969,
223496,213971,
223519,213986,
223541,214000,
223590,214014,
223624,214045,
223687,214070,
223720,214092,
223767,214110,
223788,214132,
223833,214144,
223862,214158,
223847,214172,
223847,214134,
223777,214119,
223649,214036,
223515,213959,
223305,213853,
223068,213760,
222870,213655,
222610,213556,
222421,213463,
222206,213383,
222052,213307,
221939,213274,
221859,213259,
221815,213261,
221790,213230,
221764,213221,
221777,213230,
221746,213243,
221764,213209,
221755,213221,
221730,213186,
221731,213182,
221713,213175,
221697,213158,
221666,213162,
221681,213147,
221694,213158,
221716,213162,
221713,213171,
221729,213184,
221721,213176,
221707,213162,
221691,213146,
221663,213160,
221664,213161,
221656,213161,
221658,213139,
221665,213153,
221683,213162,
221712,213182,
221760,213195,
221784,213228,
221831,213244,
221888,213262,
221914,213282,
221979,213322,
221980,213329,
222024,213350,
222101,213365,
222128,213389,
222166,213411,
222195,213436,
222229,213438,
222272,213452,
222301,213464,
222346,213490,
222373,213492,
222403,213514,
222433,213538,
222443,213548,
222488,213575,
222527,213590,
222561,213611,
222598,213634,
222637,213649,
222664,213664,
222685,213685,
222724,213695,
222743,213699,
222774,213724,
222809,213735,
222846,213755,
222883,213789,
222936,213799,
222976,213807,
223013,213832,
223051,213863,
223088,213865,
223110,213890,
223166,213902,
223194,213932,
223229,213935,
223251,213946,
223304,213981,
223349,213983,
223364,214003,
223377,214011,
223416,214030,
223437,214054,
223487,214058,
223507,214079,
223545,214091,
223588,214106,
223625,214133,
223686,214145,
223712,214160,
223748,214179,
223784,214213,
223776,214215,
223779,214200,
223700,214128,
223544,214079,
223395,213989,
223170,213892,
222951,213805,
222730,213697,
222492,213567,
222265,213493,
222037,213407,
221871,213319,
221751,213264,
221628,213218,
221569,213218,
221551,213199,
221521,213202,
221541,213195,
221524,213200,
221540,213193,
221523,213180,
221492,213176,
221477,213162,
221440,213158,
221444,213144,
221447,213148,
221428,213150,
221466,213150,
221457,213165,
221474,213169,
221512,213202,
221506,213190,
221493,213188,
221491,213185,
221465,213192,
221456,213166,
221451,213177,
221457,213181,
221475,213172,
221509,213203,
221531,213213,
221582,213241,
221618,213265,
221631,213279,
221661,213295,
221702,213300,
221732,213319,
221782,213357,
221849,213375,
221893,213406,
221926,213442,
221981,213461,
222035,213477,
222079,213476,
222110,213507,
222131,213523,
222135,213518,
222167,213537,
222236,213568,
222272,213582,
222307,213616,
222336,213631,
222378,213650,
222409,213679,
222436,213679,
222459,213693,
222471,213698,
222511,213708,
222537,213736,
222552,213742,
222620,213752,
222662,213779,
222700,213813,
222738,213823,
222768,213838,
222807,213845,
222864,213876,
222869,213899,
222923,213896,
222965,213926,
222995,213952,
223040,213962,
223060,213966,
223102,213992,
223138,214016,
223172,214037,
223194,214056,
223230,214057,
223278,214063,
223311,214091,
223331,214105,
223359,214123,
223392,214120,
223395,214125,
223433,214148,
223455,214150,
223514,214171,
223551,214192,
223604,214221,
223641,214229,
223662,214247,
223705,214274,
223733,214272,
223772,214288,
223786,214302,
223774,214294,
223742,214272,
223681,214220,
223486,214160,
223300,214062,
223065,213934,
222801,213794,
222527,213696,
222248,213585,
222024,213473,
221829,213395,
221669,213321,
221561,213291,
221469,213256,
221439,213252,
221426,213252,
221400,213235,
221381,213237,
221397,213232,
221367,213223,
221369,213222,
221327,213204,
221305,213203,
221300,213185,
221272,213172,
221282,213179,
221285,213182,
221287,213193,
221294,213197,
221306,213198,
221335,213215,
221321,213207,
221336,213219,
221341,213239,
221373,213239,
221375,213240,
221376,213256,
221406,213272,
221442,213293,
221461,213292,
221495,213319,
221530,213325,
221559,213353,
221625,213392,
221695,213440,
221763,213465,
221814,213510,
221855,213541,
221907,213548,
221955,213584,
221988,213618,
222030,213621,
222070,213625,
222108,213645,
222130,213689,
222185,213710,
222231,213712,
222254,213752,
222294,213764,
222323,213777,
222355,213794,
222418,213814,
222436,213847,
222489,213869,
222535,213885,
222580,213920,
222620,213949,
222652,213955,
222692,213972,
222717,213982,
222750,214016,
222785,214027,
222818,214036,
222856,214062,
222901,214094,
222935,214099,
222993,214146,
223040,214150,
223089,214183,
223116,214182,
223141,214216,
223192,214237,
223211,214257,
223245,214250,
223287,214285,
223337,214305,
223376,214321,
223408,214318,
223446,214362,
223495,214379,
223550,214409,
223603,214418,
223647,214446,
223688,214471,
223735,214500,
223779,214503,
223823,214558,
223864,214553,
223857,214546,
223821,214518,
223749,214483,
223616,214422,
223447,214322,
223218,214224,
222978,214110,
222750,213997,
222504,213916,
222297,213817,
222132,213756,
221989,213702,
221903,213670,
221819,213654,
221776,213635,
221776,213635,
221764,213634,
221756,213632,
221789,213626,
221791,213628,
221791,213619,
221778,213627,
221749,213628,
221744,213586,
221723,213578,
221728,213588,
221730,213600,
221740,213608,
221763,213602,
221776,213630,
221794,213633,
221782,213618,
221781,213631,
221760,213610,
221732,213590,
221715,213590,
221695,213587,
221693,213598,
221718,213592,
221727,213598,
221773,213629,
221796,213630,
221827,213651,
221867,213682,
221931,213696,
221981,213730,
222019,213773,
222078,213767,
222136,213807,
222193,213821,
222232,213843,
222271,213868,
222324,213877,
222378,213895,
222408,213927,
222461,213938,
222505,213965,
222546,213980,
222594,213999,
222593,214007,
222659,214031,
222707,214061,
222746,214077,
222786,214111,
222851,214144,
222885,214151,
222930,214165,
222958,214184,
223017,214200,
223033,214216,
223074,214230,
223123,214251,
223131,214254,
223168,214269,
223222,214302,
223235,214307,
223275,214326,
223310,214335,
223350,214342,
223377,214364,
223400,214380,
223413,214383,
223459,214398,
223457,214387,
223485,214390,
223518,214417,
223544,214411,
223572,214431,
223604,214440,
223608,214471,
223665,214468,
223705,214496,
223745,214507,
223770,214529,
223794,214544,
223787,214521,
223735,214477,
223642,214443,
223510,214348,
223314,214259,
223099,214155,
222839,214045,
222598,213914,
222327,213825,
222096,213732,
221932,213641,
221787,213589,
221685,213550,
221609,213523,
221541,213514,
221537,213488,
221526,213482,
221523,213496,
221504,213489,
221507,213486,
221516,213484,
221505,213479,
221486,213468,
221474,213462,
221467,213456,
221445,213453,
221469,213450,
221475,213445,
221494,213470,
221491,213486,
221508,213488,
221517,213491,
221530,213486,
221519,213493,
221537,213481,
221510,213477,
221521,213495,
221540,213494,
221538,213496,
221551,213501,
221602,213511,
221610,213540,
221658,213561,
221704,213572,
221739,213588,
221783,213618,
221835,213634,
221893,213669,
221931,213673,
221961,213702,
222006,213731,
222037,213725,
222099,213762,
222145,213767,
222174,213799,
222219,213824,
222250,213831,
222289,213846,
222318,213857,
222344,213893,
222400,213900,
222436,213924,
222484,213938,
222522,213962,
222548,213964,
222584,214002,
222597,214015,
222632,214027,
222669,214036,
222701,214050,
222715,214070,
222759,214095,
222780,214107,
222804,214113,
222874,214120,
222875,214146,
222923,214159,
222957,214188,
223013,214208,
223038,214223,
223070,214233,
223091,214229,
223126,214240,
223134,214262,
223191,214271,
223224,214303,
223258,214322,
223309,214327,
223362,214362,
223375,214365,
223433,214390,
223450,214409,
223476,214432,
223506,214431,
223537,214445,
223571,214455,

