
232829,223427,
232767,223390,
232789,223378,
232744,223377,
232819,223376,
232727,223351,
232774,223362,
232731,223346,
232756,223339,
232696,223317,
232742,223312,
232679,223300,
232743,223305,
232678,223297,
232748,223304,
232726,223302,
232758,223307,
232692,223291,
232740,223305,
232729,223284,
232758,223285,
232734,223301,
232786,223281,
232709,223275,
232774,223302,
232759,223287,
232788,223276,
232740,223293,
232823,223309,
232753,223266,
232797,223266,
232779,223294,
232840,223304,
232783,223283,
232849,223273,
232832,223329,
232861,223282,
232798,223299,
232876,223296,
232863,223305,
232896,223283,
232839,223325,
232888,223279,
232856,223317,
232875,223248,
232848,223300,
232893,223270,
232859,223296,
232882,223241,
232869,223300,
232919,223280,
232892,223288,
232891,223246,
232901,223289,
232928,223253,
232895,223296,
232904,223255,
232931,223294,
232942,223253,
232918,223286,
232950,223259,
232969,223292,
232957,223271,
232939,223278,
232958,223266,
232980,223293,
232999,223252,
232987,223299,
232997,223266,
233045,223299,
233019,223262,
233011,223301,
233033,223269,
233046,223335,
233031,223259,
233055,223293,
233039,223262,
233082,223318,
233028,223267,
233055,223287,
233045,223267,
233088,223295,
233039,223240,
233082,223301,
233073,223251,
233084,223288,
233053,223234,
233105,223308,
233049,223237,
233086,223275,
233025,223227,
233099,223284,
233044,223199,
233069,223259,
233026,223207,
233079,223266,
233026,223213,
233057,223246,
232994,223193,
233069,223236,
232986,223178,
233040,223217,
232979,223180,
233035,223190,
232933,223123,
232949,223127,
232789,223018,
232777,223016,
232628,222894,
232592,222875,
232447,222762,
232419,222772,
232301,222692,
232278,222658,
232157,222577,
232193,222599,
232086,222536,
232152,222568,
232065,222491,
232092,222536,
232035,222479,
232096,222536,
232035,222467,
232087,222510,
232013,222473,
232076,222526,
232063,222485,
232157,222545,
232074,222486,
232154,222558,
232113,222511,
232189,222589,
232128,222539,
232244,222621,
232156,222549,
232232,222615,
232181,222567,
232264,222631,
232196,222576,
232275,222641,
232197,222553,
232258,222622,
232184,222547,
232256,222612,
232205,222543,
232277,222625,
232246,222557,
232295,222608,
232197,222533,
232289,222606,
232218,222547,
232304,222631,
232255,222559,
232335,222616,
232283,222554,
232334,222600,
232238,222527,
232306,222594,
232238,222526,
232325,222597,
232258,222545,
232328,222603,
232235,222513,
232315,222586,
232241,222507,
232314,222567,
232224,222481,
232296,222553,
232213,222501,
232280,222543,
232189,222490,
232265,222563,
232199,222473,
232279,222536,
232181,222449,
232230,222522,
232137,222426,
232208,222489,
232141,222454,
232212,222512,
232130,222445,
232241,222526,
232154,222460,
232250,222516,
232161,222463,
232246,222514,
232152,222446,
232239,222499,
232129,222435,
232226,222504,
232153,222440,
232238,222495,
232152,222442,
232260,222503,
232141,222455,
232257,222520,
232184,222460,
232271,222518,
232179,222474,
232253,222510,
232190,222453,
232263,222523,
232163,222459,
232264,222519,
232178,222459,
232263,222528,
232175,222459,
232263,222522,
232166,222451,
232260,222509,
232165,222466,
232256,222515,
232165,222444,
232268,222516,
232166,222443,
232253,222494,
232176,222468,
232266,222515,
232173,222449,
232253,222519,
232189,222462,
232255,222506,
232175,222468,
232283,222519,
232190,222459,
232279,222511,
232194,222447,
232267,222521,
232202,222460,
232284,222509,
232185,222466,
232273,222504,
232203,222451,
232278,222515,
232185,222445,
232276,222513,
232209,222463,
232301,222533,
232219,222474,
232298,222521,
232224,222476,
232305,222516,
232216,222449,
232302,222520,
232224,222466,
232320,222522,
232229,222459,
232318,222522,
232245,222466,
232304,222516,
232224,222457,
232322,222520,
232232,222477,
232308,222508,
232232,222458,
232282,222499,
232218,222445,
232309,222496,
232213,222453,
232310,222496,
232205,222454,
232315,222482,
232218,222436,
232320,222504,
232217,222438,
232311,222487,
232238,222434,
232314,222461,
232237,222422,
232332,222475,
232243,222424,
232313,222452,
232225,222424,
232330,222472,
232225,222413,
232319,222455,
232246,222388,
232335,222449,
232250,222401,
232341,222446,
232231,222399,
232333,222434,
232237,222386,
232308,222413,
232230,222372,
232333,222425,
232245,222381,
232324,222425,
232246,222379,
232333,222427,
232257,222385,
232328,222411,
232248,222380,
232323,222401,
232252,222365,
232337,222409,
232269,222375,
232350,222413,
232256,222353,
232323,222374,
232250,222322,
232332,222385,
232263,222332,
232345,222380,
232255,222330,
232340,222362,
232255,222311,
232335,222353,
232263,222318,
232341,222334,
232258,222310,
232347,222339,
232266,222304,
232347,222319,
232260,222286,
232334,222322,
232260,222298,
232336,222322,
232268,222287,
232349,222331,
232273,222296,
232334,222311,
232260,222269,
232320,222302,
232258,222246,
232325,222290,
232250,222238,
232313,222296,
232265,222242,
232312,222291,
232263,222250,
232332,222283,
232270,222240,
232331,222283,
232263,222233,
232310,222256,
232265,222223,
232326,222271,
232263,222228,
232340,222270,
232257,222216,
232315,222258,
232257,222210,
232313,222270,
232276,222213,
232330,222257,
232278,222229,
232322,222252,
232256,222220,
232335,222248,
232264,222202,
232353,222256,
232276,222195,
232347,222248,
232271,222184,
232341,222218,
232273,222187,
232328,222221,
232274,222193,
232326,222230,
232276,222169,
232324,222218,
232280,222195,
232341,222229,
232287,222204,
232347,222221,
232274,222186,
232339,222212,
232296,222196,
232333,222209,
232255,222168,
232320,222194,
232260,222175,
232340,222205,
232285,222148,
232336,222170,
232266,222134,
232322,222159,
232267,222142,
232339,222160,
232279,222123,
232336,222145,
232275,222124,
232317,222139,
232275,222114,
232333,222139,
232281,222127,
232325,222144,
232263,222103,
232334,222120,
232289,222111,
232320,222117,
232269,222101,
232332,222122,
232270,222085,
232325,222100,
232261,222091,
232315,222070,
232257,222066,
232310,222068,
232282,222073,
232309,222065,
232256,222044,
232302,222052,
232266,222058,
232321,222045,
232250,222051,
232305,222045,
232269,222049,
232305,222063,
232231,222039,
232288,222045,
232255,222044,
232284,222024,
232244,222030,
232287,222027,
232240,222026,
232279,222019,
232268,222023,
232282,222021,
232246,222031,
232274,221982,
232240,222030,
232291,221985,
232244,222011,
232281,222002,
232257,222040,
232282,221988,
232249,222009,
232273,221992,
232244,222020,
232269,221984,
232245,222017,
232262,221967,
232252,222020,
232252,221953,
232263,221995,
232274,221958,
232240,222005,
232267,221960,
232246,221993,
232249,221970,
232244,221990,
232248,221956,
232247,221981,
232255,221955,
232243,221977,
232235,221939,
232245,221966,
232244,221936,
232255,221975,
232244,221923,
232249,221956,
232269,221927,
232260,221980,
232241,221911,
232248,221941,
232254,221895,
232275,221938,
232236,221906,
232257,221936,
232255,221897,
232258,221946,
232238,221890,
232274,221950,
232256,221901,
232286,221922,
232231,221887,
232282,221910,
232231,221878,
232254,221913,
232241,221883,
232290,221912,
232232,221872,
232276,221904,
232212,221882,
232282,221906,
232225,221862,
232271,221903,
232246,221855,
232280,221905,
232234,221858,
232287,221885,
232231,221851,
232287,221887,
232236,221839,
232276,221881,
232242,221841,
232311,221888,
232234,221825,
232287,221869,
232221,221819,
232282,221863,
232212,221820,
232295,221862,
232220,221811,
232284,221856,
232217,221799,
232284,221857,
232202,221792,
232278,221839,
232216,221797,
232293,221862,
232222,221793,
232290,221847,
232218,221779,
232287,221831,
232238,221788,
232300,221829,
232234,221785,
232292,221836,
232217,221779,
232281,221816,
232213,221759,
232254,221793,
232195,221744,
232258,221803,
232205,221748,
232265,221814,
232211,221741,
232239,221792,
232187,221746,
232235,221813,
232175,221737,
232249,221792,
232198,221729,
232238,221809,
232165,221709,
232259,221794,
232181,221724,
232263,221791,
232173,221729,
232260,221782,
232156,221722,
232239,221773,
232174,221707,
232268,221772,
232181,221715,
232263,221763,
232173,221721,
232265,221763,
232184,221699,
232252,221756,
232181,221691,
232257,221734,
232176,221680,
232265,221725,
232171,221682,
232262,221745,
232180,221689,
232263,221724,
232185,221663,
232270,221741,
232185,221660,
232275,221711,
232180,221667,
232288,221722,
232177,221664,
232286,221714,
232175,221659,
232302,221721,
232204,221656,
232281,221696,
232197,221651,
232316,221703,
232208,221638,
232293,221694,
232208,221636,
232312,221696,
232219,221635,
232279,221674,
232202,221628,
232304,221674,
232199,221611,
232277,221655,
232191,221612,
232288,221666,
232188,221608,
232274,221651,
232200,221617,
232279,221642,
232198,221596,
232276,221654,
232205,221589,
232293,221643,
232213,221584,
232305,221654,
232190,221564,
232287,221621,
232185,221562,
232280,221602,
232189,221568,
232283,221612,
232204,221565,
232288,221618,
232200,221561,
232279,221611,
232217,221538,
232290,221595,
232216,221554,
232276,221594,
232203,221530,
232279,221583,
232189,221532,
232277,221593,
232204,221523,
232281,221591,
232181,221520,
232273,221586,
232197,221535,
232284,221591,
232188,221516,
232259,221577,
232194,221515,
232274,221571,
232197,221529,
232272,221569,
232214,221505,
232297,221555,
232192,221497,
232278,221560,
232201,221505,
232286,221552,
232203,221513,
232276,221554,
232186,221491,
232277,221544,
232192,221503,
232272,221543,
232190,221492,
232269,221534,
232187,221482,
232267,221533,
232212,221483,
232274,221532,
232202,221474,
232263,221553,
232203,221484,
232271,221515,
232234,221482,
232289,221531,
232202,221453,
232297,221513,
232200,221468,
232289,221509,
232206,221475,
232304,221520,
232231,221484,
232306,221519,
232225,221475,
232309,221503,
232199,221463,
232293,221499,
232202,221470,
232301,221501,
232212,221476,
232281,221492,
232213,221461,
232286,221497,
232219,221453,
232283,221489,
232205,221451,
232299,221494,
232216,221463,
232310,221482,
232217,221446,
232278,221468,
232224,221416,
232320,221467,
232242,221439,
232299,221459,
232231,221423,
232300,221459,
232218,221425,
232306,221452,
232243,221418,
232310,221444,
232225,221405,
232307,221456,
232227,221409,
232316,221435,
232236,221409,
232300,221446,
232233,221385,
232325,221428,
232227,221393,
232312,221429,
232237,221375,
232312,221411,
232256,221382,
232302,221421,
232244,221396,
232306,221433,
232265,221383,
232316,221436,
232256,221381,
232323,221424,
232255,221380,
232318,221420,
232246,221365,
232313,221408,
232243,221369,
232308,221433,
232241,221358,
232306,221402,
232235,221379,
232281,221404,
232256,221385,
232308,221403,
232238,221364,
232306,221390,
232248,221354,
232300,221395,
232223,221362,
232287,221385,
232220,221345,
232295,221378,
232221,221347,
232290,221401,
232219,221344,
232281,221376,
232237,221352,
232264,221374,
232216,221337,
232279,221353,
232248,221312,
232277,221380,
232221,221325,
232266,221364,
232237,221324,
232274,221352,
232211,221327,
232284,221360,
232225,221337,
232289,221348,
232229,221320,
232293,221345,
232233,221328,
232298,221346,
232217,221333,
232296,221345,
232230,221335,
232278,221358,
232239,221314,
232289,221336,
232246,221330,
232291,221335,
232253,221309,
232289,221322,
232220,221317,
232290,221314,
232220,221302,
232273,221318,
232246,221283,
232282,221317,
232231,221299,
232298,221312,
232230,221271,
232274,221327,
232229,221299,
232285,221289,
232242,221290,
232277,221290,
232226,221284,
232260,221284,
232227,221289,
232286,221277,
232210,221247,
232263,221273,
232220,221279,
232270,221275,
232214,221276,
232285,221253,
232230,221268,
232252,221271,
232224,221281,
232267,221259,
232211,221270,
232254,221249,
232206,221268,
232241,221251,
232214,221262,
232253,221255,
232225,221272,
232251,221243,
232227,221258,
232269,221239,
232220,221255,
232247,221238,
232227,221275,
232266,221244,
232233,221256,
232259,221239,
232235,221255,
232246,221211,
232231,221258,
232235,221213,
232228,221254,
232235,221220,
232238,221240,
232236,221215,
232223,221252,
232232,221194,
232232,221258,
232235,221209,
232229,221241,
232231,221218,
232248,221230,
232231,221189,
232249,221245,
232231,221196,
232248,221246,
232233,221201,
232241,221234,
232229,221191,
232247,221236,
232208,221183,
232224,221224,
232205,221161,
232219,221208,
232209,221164,
232219,221193,
232193,221173,
232236,221202,
232192,221157,
232235,221202,
232189,221137,
232206,221200,
232195,221146,
232221,221196,
232189,221141,
232231,221186,
232183,221136,
232239,221180,
232176,221148,
232223,221168,
232171,221127,
232241,221180,
232180,221132,
232235,221174,
232177,221118,
232236,221158,
232173,221107,
232223,221164,
232155,221099,
232215,221162,
232161,221119,
232228,221156,
232159,221106,
232218,221155,
232167,221104,
232218,221139,
232169,221106,
232223,221141,
232169,221090,
232214,221141,
232155,221093,
232210,221119,
232165,221061,
232211,221143,
232147,221068,
232217,221131,
232151,221082,
232201,221126,
232149,221072,
232223,221140,
232161,221069,
232216,221119,
232154,221064,
232222,221124,
232141,221067,
232214,221129,
232136,221070,
232220,221127,
232143,221057,
232204,221130,
232155,221045,
232201,221122,
232129,221059,
232195,221127,
232141,221045,
232220,221106,
232127,221030,
232182,221096,
232125,221035,
232209,221095,
232134,221029,
232177,221078,
232110,221025,
232193,221098,
232101,221026,
232180,221083,
232092,221024,
232163,221082,
232101,221010,
232168,221070,
232095,220992,
232173,221064,
232072,221000,
232152,221055,
232069,220990,
232155,221055,
232074,221005,
232159,221056,
232087,220996,
232154,221038,
232087,221002,
232158,221057,
232083,220988,
232159,221060,
232091,220997,
232197,221050,
232096,220999,
232161,221049,
232083,220991,
232186,221029,
232069,220970,
232188,221037,
232072,220969,
232181,221029,
232090,220965,
232189,221034,
232096,220975,
232197,221040,
232103,220975,
232195,221029,
232108,220960,
232205,221034,
232110,220966,
232198,221019,
232107,220977,
232186,221010,
232095,220972,
232207,221013,
232104,220958,
232189,221004,
232111,220963,
232185,220993,
232096,220933,
232183,220987,
232101,220923,
232184,221000,
232094,220919,
232175,220984,
232086,220921,
232176,220982,
232082,220919,
232169,220964,
232085,220915,
232167,220976,
232090,220903,
232174,220968,
232085,220910,
232165,220972,
232097,220917,
232169,220964,
232084,220910,
232173,220945,
232080,220900,
232155,220956,
232075,220906,
232170,220937,
232095,220909,
232155,220964,
232077,220899,
232156,220953,
232081,220879,
232168,220946,
232078,220884,
232162,220940,
232061,220870,
232155,220941,
232075,220895,
232154,220933,
232068,220896,
232145,220927,
232062,220880,
232163,220936,
232056,220874,
232148,220921,
232056,220854,
232130,220921,
232071,220874,
232141,220922,
232066,220869,
232141,220903,
232053,220863,
232141,220892,
232052,220849,
232151,220901,
232073,220867,
232153,220898,
232055,220839,
232144,220891,
232060,220848,
232161,220903,
232045,220842,
232148,220897,
232070,220846,
232158,220884,
232069,220852,
232172,220895,
232060,220838,
232153,220869,
232051,220833,
232133,220874,
232075,220832,
232153,220877,
232072,220815,
232160,220867,
232073,220830,
232158,220878,
232071,220845,
232145,220864,
232067,220829,
232163,220867,
232064,220809,
232134,220857,
232062,220811,
232145,220844,
232070,220811,
232146,220847,
232067,220789,
232135,220820,
232061,220790,
232129,220831,
232059,220804,
232131,220818,
232070,220776,
232152,220822,
232068,220780,
232149,220810,
232067,220778,
232145,220824,
232067,220761,
232156,220805,
232082,220762,
232147,220799,
232077,220771,
232140,220809,
232058,220777,
232135,220810,
232090,220777,
232131,220809,
232092,220762,
232155,220798,
232085,220756,
232138,220795,
232082,220757,
232136,220809,
232084,220744,
232144,220790,
232063,220772,
232140,220791,
232099,220761,
232139,220786,
232092,220764,
232142,220781,
232078,220752,
232143,220769,
232093,220748,
232142,220771,
232074,220733,
232149,220777,
232067,220727,
232140,220786,
232056,220721,
232136,220757,
232071,220745,
232132,220767,
232086,220721,
232146,220772,
232075,220711,
232146,220754,
232062,220718,
232116,220733,
232066,220714,
232130,220742,
232051,220704,
232131,220735,
232055,220687,
232134,220739,
232078,220698,
232112,220719,
232069,220698,
232131,220714,
232057,220711,
232125,220729,
232059,220686,
232117,220707,
232064,220693,
232128,220700,
232093,220684,
232133,220706,
232066,220669,
232128,220717,
232062,220687,
232136,220707,
232076,220658,
232132,220702,
232071,220675,
232106,220691,
232075,220692,
232124,220699,
232078,220667,
232122,220707,
232052,220662,
232127,220686,
232068,220657,
232125,220693,
232078,220666,
232124,220679,
232079,220662,
232137,220675,
232076,220665,
232149,220675,
232077,220661,
232120,220659,
232052,220646,
232110,220643,
232056,220638,
232089,220647,
232040,220640,
232092,220637,
232057,220641,
232109,220634,
232060,220630,
232120,220638,
232037,220630,
232119,220646,
232059,220644,
232109,220631,
232060,220634,
232107,220623,
232056,220627,
232092,220611,
232068,220625,
232088,220611,
232059,220633,
232098,220626,
232056,220634,
232102,220610,
232064,220635,
232106,220604,
232070,220608,
232101,220584,
232066,220630,
232110,220589,
232075,220612,
232097,220579,
232056,220617,
232073,220573,
232056,220610,
232064,220591,
232056,220601,
232093,220562,
232060,220599,
232088,220572,
232055,220603,
232081,220564,
232060,220627,
232078,220571,
232066,220602,
232063,220562,
232053,220605,
232071,220565,
232066,220598,
232073,220573,
232077,220587,
232072,220547,
232075,220606,
232074,220565,
232083,220589,
232070,220551,
232070,220593,
232067,220553,
232069,220566,
232058,220532,
232071,220557,
232048,220531,
232071,220578,
232062,220514,
232076,220557,
232044,220525,
232072,220560,
232043,220521,
232103,220553,
232041,220503,
232074,220553,
232040,220501,
232098,220528,
232039,220503,
232093,220537,
232034,220520,
232089,220534,
232040,220486,
232074,220528,
232040,220505,
232079,220523,
232031,220486,
232082,220526,
232020,220487,
232065,220535,
232022,220487,
232078,220520,
232031,220495,
232086,220531,
232034,220488,
232092,220520,
232039,220472,
232071,220525,
232028,220466,
232067,220507,
232023,220476,
232084,220509,
232016,220459,
232084,220514,
232021,220456,
232083,220519,
232007,220466,
232079,220506,
232028,220455,
232071,220514,
232001,220453,
232079,220503,
232011,220447,
232076,220506,
232025,220460,
232082,220502,
232016,220453,
232073,220493,
232024,220453,
232082,220507,
232016,220456,
232061,220502,
232002,220449,
232084,220507,
232012,220433,
232067,220496,
231998,220453,
232090,220504,
232023,220452,
232059,220496,
232016,220445,
232072,220507,
232023,220432,
232066,220489,
231995,220431,
232061,220479,
232007,220422,
232071,220482,
232001,220425,
232067,220489,
232003,220428,
232062,220480,
232009,220425,
232073,220478,
231999,220418,
232068,220469,
231996,220410,
232065,220462,
231989,220410,
232050,220472,
231979,220395,
232055,220449,
231976,220386,
232054,220447,
231986,220396,
232046,220426,
231977,220396,
232059,220441,
231975,220391,
232064,220435,
231995,220368,
232064,220435,
231987,220369,
232080,220429,
231996,220387,
232095,220432,
231993,220369,
232084,220439,
231990,220389,
232088,220444,
231995,220385,
232082,220437,
232003,220374,
232084,220435,
231986,220390,
232071,220423,
231988,220362,
232071,220407,
231990,220370,
232084,220433,
232006,220390,
232089,220433,
231987,220376,
232093,220422,
232002,220366,
232057,220403,
231991,220356,
232068,220419,
231999,220360,
232066,220418,
231983,220347,
232077,220404,
231998,220334,
232059,220395,
231984,220340,
232055,220397,
231977,220345,
232060,220404,
231972,220345,
232068,220390,
231974,220324,
232069,220388,
231978,220344,
232064,220383,
231970,220322,
232041,220387,
231965,220318,
232061,220376,
231984,220328,
232071,220381,
231980,220332,
232057,220384,
231978,220309,
232060,220379,
231974,220335,
232057,220365,
231985,220322,
232055,220376,
231989,220308,
232052,220374,
231975,220300,
232059,220372,
231963,220318,
232045,220371,
231981,220326,
232054,220367,
231960,220302,
232050,220353,
231981,220288,
232056,220353,
231973,220299,
232056,220343,
231971,220282,
232045,220334,
231968,220290,
232050,220341,
231948,220267,
232033,220326,
231980,220292,
232015,220326,
231949,220295,
232043,220328,
231967,220288,
232047,220327,
231954,220276,
232033,220317,
231962,220260,
232045,220306,
231962,220265,
232041,220299,
231956,220262,
232037,220326,
231987,220255,
232067,220309,
231975,220266,
232073,220306,
231977,220244,
232067,220298,
231981,220264,
232061,220283,
231965,220252,
232063,220277,
231965,220241,
232064,220295,
231977,220232,
232052,220273,
231941,220240,
232060,220271,
231972,220228,
232047,220259,
231969,220217,
232033,220257,
231966,220224,
232046,220246,
231956,220219,
232040,220248,
231951,220211,
232021,220237,
231953,220202,
232020,220240,
231953,220209,
232014,220245,
231953,220195,
232022,220229,
231955,220203,
232028,220233,
231964,220191,
232038,220230,
231952,220182,
232019,220215,
231950,220180,
232025,220223,
231964,220175,
232044,220225,
231949,220161,
232036,220220,
231951,220167,
232031,220203,
231960,220167,
232005,220218,
231961,220183,
232020,220229,
231968,220167,
232029,220211,
231960,220171,
232015,220200,
231962,220182,
232029,220218,
231967,220153,
232036,220205,
231972,220176,
232010,220202,
231960,220175,
232018,220198,
231965,220168,
232045,220202,
231968,220159,
232014,220191,
231970,220162,
232024,220204,
231966,220158,
232012,220180,
231960,220136,
232035,220197,
231950,220137,
232019,220188,
231951,220147,
232023,220186,
231967,220149,
232017,220177,
231967,220141,
232033,220169,
231964,220143,
232038,220168,
231952,220129,
232005,220167,
231949,220139,
232010,220152,
231957,220108,
232022,220148,
231953,220122,
232030,220145,
231964,220108,
232037,220129,
231954,220099,
232032,220133,
231952,220095,
232017,220126,
231954,220111,
232007,220118,
231945,220084,
232012,220137,
231960,220105,
232016,220142,
231935,220096,
232007,220121,
231944,220101,
232020,220105,
231964,220104,
232008,220102,
231941,220079,
231997,220103,
231926,220061,
231992,220094,
231928,220055,
231993,220075,
231935,220056,
231995,220067,
231944,220058,
231974,220067,
231913,220067,
231969,220054,
231955,220061,
231983,220047,
231919,220061,
231968,220061,
231935,220070,
231993,220058,
231924,220043,
231951,220046,
231911,220036,
231966,220033,
231916,220032,
231958,220036,
231929,220042,
231967,220028,
231924,220037,
231956,220009,
231926,220023,
231969,220016,
231926,220028,
231971,220022,
231921,220019,
231958,219999,
231920,220012,
231973,220005,
231922,220020,
231960,220010,
231898,220018,
231954,219993,
231918,220011,
231944,219974,
231909,220015,
231935,219971,
231913,220014,
231929,219977,
231923,220017,
231947,219965,
231920,219999,
231931,219990,
231916,220023,
231933,219978,
231907,220000,
231931,219968,
231933,220002,
231946,219968,
231940,220013,
231937,219988,
231937,220022,
231946,219984,
231945,220021,
231942,219969,
231950,220008,
231939,219983,
231934,220026,
231923,219965,
231949,220004,
231935,219964,
231949,220011,
231942,219965,
231955,220009,
231956,219968,
231960,220013,
231936,219973,
231963,220005,
231952,219976,
231999,220019,
231964,219985,
232008,220013,
231970,219984,
232010,220009,
231966,219973,
232008,220014,
231944,219957,
232016,220013,
231960,219971,
232022,219989,
231950,219972,
232017,220010,
231930,219951,
232009,220002,
231949,219955,
232013,219983,
231932,219936,
232011,219984,
231921,219927,
231999,219971,
231933,219936,
231979,219977,
231909,219930,
231972,219969,
231907,219922,
231975,219967,
231933,219932,
231969,219960,
231885,219892,
231951,219953,
231891,219921,
231961,219959,
231888,219921,
231958,219960,
231898,219914,
231948,219949,
231880,219903,
231942,219966,
231895,219888,
231954,219963,
231880,219896,
231954,219958,
231887,219897,
231951,219953,
231879,219891,
231946,219946,
231890,219910,
231961,219945,
231901,219888,
231976,219953,
231899,219897,
231963,219946,
231894,219893,
231969,219948,
231879,219878,
231965,219934,
231886,219879,
231965,219936,
231903,219868,
231960,219932,
231888,219866,
231935,219935,
231880,219858,
231962,219935,
231881,219869,
231961,219925,
231887,219878,
231946,219934,
231874,219867,
231982,219946,
231916,219870,
231980,219923,
231915,219862,
231976,219933,
231903,219880,
231981,219940,
231903,219872,
231989,219943,
231917,219890,
231984,219927,
231904,219870,
231988,219940,
231919,219865,
231995,219906,
231908,219869,
231998,219909,
231911,219851,
231994,219904,
231893,219856,
232001,219904,
231921,219861,
232002,219901,
231913,219836,
231986,219900,
231886,219830,
231971,219886,
231887,219838,
231978,219865,
231891,219832,
231987,219876,
231880,219831,
231954,219877,
231881,219811,
231972,219873,
231856,219817,
231964,219869,
231851,219798,
231924,219832,
231843,219780,
231936,219844,
231856,219782,
231928,219837,
231841,219786,
231920,219829,
231834,219767,
231918,219825,
231827,219753,
231907,219816,
231847,219766,
231930,219813,
231838,219756,
231931,219794,
231833,219746,
231938,219788,
231822,219742,
231934,219781,
231839,219746,
231938,219788,
231864,219736,
231941,219787,
231850,219727,
231935,219791,
231858,219730,
231970,219783,
231865,219728,
231963,219778,
231861,219716,
231951,219786,
231842,219699,
231941,219765,
231842,219705,
231940,219742,
231841,219693,
231919,219741,
231829,219682,
231908,219724,
231814,219672,
231898,219739,
231812,219661,
231899,219737,
231809,219682,
231905,219721,
231829,219670,
231904,219714,
231833,219676,
231922,219731,
231830,219656,
231925,219700,
231835,219658,
231932,219707,
231840,219659,
231939,219704,
231850,219651,
231937,219698,
231844,219638,
231940,219698,
231855,219654,
231951,219705,
231846,219648,
231949,219718,
231857,219663,
231971,219706,
231867,219651,
231960,219698,
231877,219660,
231961,219691,
231878,219652,
231965,219706,
231903,219657,
231961,219692,
231873,219650,
231968,219682,
231883,219654,
231973,219711,
231896,219650,
231980,219690,
231913,219663,
231987,219696,
231900,219650,
231981,219682,
231900,219665,
231990,219686,
231913,219642,
231985,219676,
231919,219644,
232008,219690,
231929,219641,
231999,219672,
231935,219653,
232032,219686,
231941,219641,
232033,219687,
231967,219640,
232042,219682,
231957,219657,
232041,219692,
231973,219666,
232039,219681,
231962,219659,
232035,219687,
231975,219636,
232038,219686,
231972,219666,
232059,219684,
231966,219646,
232051,219676,
231959,219662,
232020,219685,
231952,219649,
232038,219697,
231948,219638,
231997,219677,
231929,219612,
231985,219664,
231939,219603,
231993,219673,
231899,219610,
231953,219640,
231894,219604,
231934,219638,
231892,219611,
231956,219647,
231884,219618,
231944,219646,
231900,219632,
231963,219678,
231900,219638,
231983,219657,
231935,219658,
232007,219688,
231931,219664,
232023,219703,
231965,219669,
232028,219706,
231971,219679,
232031,219717,
231971,219665,
232055,219710,
231974,219668,
232027,219708,
231966,219646,
232007,219682,
231942,219659,
232014,219681,
231931,219650,
231997,219666,
231930,219633,
231983,219659,
231922,219632,
231974,219661,
231918,219632,
231973,219633,
231912,219635,
231968,219639,
231891,219607,
231955,219644,
231917,219611,
231983,219630,
231897,219623,
231956,219620,
231898,219601,
231947,219618,
231924,219603,
231985,219630,
231919,219604,
231995,219632,
231900,219604,
231993,219618,
231932,219602,
231979,219617,
231927,219602,
231981,219624,
231930,219614,
231975,219600,
231920,219596,
231981,219599,
231951,219613,
232004,219631,
231968,219633,
232003,219627,
231973,219624,
232041,219632,
231985,219622,
232022,219632,
231976,219623,
232019,219634,
231976,219623,
232013,219621,
231961,219612,
231998,219616,
231970,219607,
232017,219609,
231950,219608,
231992,219601,
231963,219610,
232007,219593,
231996,219626,
232009,219613,
231970,219633,
232004,219611,
232004,219643,
232028,219611,
232026,219645,
232041,219590,
231994,219632,
232044,219618,
232001,219639,
232023,219605,
232004,219637,
232024,219583,
231998,219628,
232019,219589,
231981,219612,
232013,219563,
231981,219615,
231998,219571,
231990,219593,
231978,219572,
231985,219605,
231977,219552,
231977,219593,
231956,219552,
231955,219546,
231942,219529,
231957,219555,
231937,219535,
231930,219576,
231938,219501,
231945,219563,
231952,219526,
231960,219556,
231947,219523,
231978,219551,
231954,219499,
231961,219542,
231946,219505,
231970,219551,
231936,219500,
231984,219533,
231922,219500,
231979,219536,
231913,219492,
231982,219531,
231931,219503,
231969,219535,
231943,219497,
231985,219534,
231923,219492,
231984,219530,
231923,219477,
231964,219534,
231910,219472,
231971,219514,
231924,219493,
231991,219521,
231933,219478,
231984,219537,
231907,219478,
231983,219522,
231916,219457,
231972,219521,
231919,219463,
231963,219503,
231902,219444,
231947,219515,
231884,219462,
231966,219498,
231887,219449,
231952,219504,
231881,219446,
231949,219487,
231868,219437,
231947,219487,
231884,219448,
231954,219488,
231896,219441,
231955,219514,
231891,219443,
231963,219501,
231888,219444,
231966,219514,
231891,219448,
231968,219512,
231903,219431,
231978,219507,
231925,219442,
231987,219516,
231916,219470,
231984,219516,
231919,219454,
232001,219535,
231921,219463,
232009,219524,
231952,219457,
232008,219513,
231937,219447,
232003,219503,
231944,219451,
232020,219505,
231943,219447,
232009,219501,
231939,219438,
232037,219503,
231969,219442,
232025,219503,
231962,219437,
232034,219489,
231942,219445,
232032,219495,
231954,219444,
232045,219488,
231954,219419,
232052,219500,
231941,219413,
232019,219486,
231944,219421,
232042,219486,
231947,219427,
232058,219486,
231968,219428,
232042,219470,
231965,219424,
232060,219475,
231941,219415,
232062,219482,
231964,219400,
232054,219477,
231943,219412,
232030,219461,
231943,219408,
232046,219457,
231956,219415,
232043,219465,
231958,219407,
232048,219460,
231955,219399,
232062,219440,
231952,219416,
232025,219446,
231937,219399,
232061,219446,
231956,219399,
232029,219453,
231944,219384,
232039,219437,
231953,219397,
232050,219456,
231976,219394,
232047,219472,
231990,219395,
232064,219453,
231971,219394,
232050,219458,
231976,219387,
232077,219450,
231991,219410,
232062,219447,
231979,219383,
232064,219430,
232008,219400,
232062,219450,
231995,219382,
232069,219438,
231992,219393,
232098,219454,
231996,219394,
232077,219444,
231972,219378,
232064,219431,
231987,219373,
232043,219431,
231971,219356,
232035,219436,
231969,219368,
232054,219425,
231963,219377,
232029,219427,
231958,219381,
232052,219426,
231989,219392,
232061,219438,
231996,219388,
232058,219441,
231977,219389,
232084,219441,
231995,219394,
232085,219451,
231988,219401,
232082,219442,
232000,219393,
232090,219438,
231987,219385,
232108,219453,
232006,219391,
232130,219440,
232020,219387,
232102,219451,
232028,219399,
232113,219455,
232035,219384,
232108,219433,
232030,219389,
232126,219440,
232041,219404,
232118,219446,
232033,219391,
232115,219428,
232023,219391,
232097,219420,
232029,219386,
232105,219422,
232033,219384,
232100,219418,
232023,219390,
232095,219418,
232001,219375,
232080,219410,
232024,219386,
232077,219410,
232000,219380,
232084,219408,
232001,219354,
232084,219413,
232018,219360,
232091,219415,
232034,219360,
232109,219402,
232031,219359,
232103,219419,
232036,219377,
232112,219416,
232019,219365,
232098,219404,
232036,219364,
232094,219388,
232014,219346,
232098,219385,
232027,219334,
232092,219380,
232002,219355,
232086,219390,
232031,219343,
232093,219389,
232012,219352,
232092,219384,
232041,219336,
232085,219399,
232014,219341,
232081,219390,
232048,219333,
232098,219389,
232026,219350,
232102,219396,
232064,219356,
232124,219398,
232054,219364,
232142,219398,
232085,219365,
232142,219398,
232083,219379,
232162,219394,
232100,219376,
232167,219401,
232096,219360,
232176,219401,
232123,219369,
232189,219398,
232135,219374,
232197,219404,
232137,219369,
232224,219407,
232170,219372,
232236,219396,
232179,219382,
232257,219395,
232202,219373,
232305,219402,
232247,219385,
232318,219420,
232263,219373,
232320,219401,
232311,219393,
232379,219412,
232334,219394,
232444,219426,
232419,219412,
232508,219456,
232505,219446,
232617,219498,
232607,219505,
232695,219550,
232694,219542,
232842,219615,
232857,219631,
233011,219677,
233061,219727,
233186,219795,
233234,219817,
233382,219884,
233455,219945,
233609,220022,
233613,220035,
233695,220086,
233594,220073,
233468,219998,
232946,219805,
232238,219545,
231694,219379,
231347,219255,
230901,219126,
230593,218986,
230269,218914,
230112,218841,
229901,218791,
229845,218794,
229758,218785,
229796,218821,
229737,218814,
229799,218842,
229800,218908,
229888,218981,
229870,219031,
229945,219065,
229917,219104,
230010,219154,
230053,219230,
230202,219274,
230308,219434,
230456,219485,
230534,219631,
230585,219593,
230526,219607,
230526,219586,
230469,219632,
230529,219587,
230468,219654,
230519,219613,
230503,219691,
230500,219635,
230431,219684,
230419,219624,
230377,219659,
230326,219599,
230307,219600,
230270,219506,
230162,219478,
230080,219372,
229938,219313,
229812,219207,
229694,219162,
229580,219061,
229496,219050,
229391,218951,
229334,218939,
229254,218851,
229193,218856,
229118,218781,
229064,218773,
228964,218702,
228891,218687,
228750,218597,
228706,218597,
228576,218503,
228525,218501,
228376,218404,
228357,218377,
228211,218268,
228265,218331,
228141,218237,
228176,218288,
228025,218254,
228164,218356,
228055,218384,
228118,218460,
227909,218380,
227928,218447,
227674,218339,
227641,218352,
227364,218214,
227273,218198,
226835,217986,
226490,217917,
225869,217557,
225156,217393,
224364,217046,
223433,216803,
222482,216346,
221511,216079,
220637,215631,
219814,215437,
219044,215032,
218321,214869,
217665,214501,
217093,214419,
216621,214136,
216157,214074,
215755,213815,
215281,213660,
214829,213440,
214382,213251,
213969,213059,
213517,212898,
213119,212748,
213003,212615,
212644,212452,
212288,212304,
211921,212139,
211511,211951,
211062,211723,
210566,211456,
210008,211155,
209477,210883,
208954,210637,
208477,210410,
208005,210189,
207467,209892,
206973,209611,
206442,209308,
205916,209027,
205481,208796,
205075,208602,
204722,208423,
204358,208218,
203900,207885,
203437,207604,
202967,207269,
202387,206829,
201685,206272,
200949,205729,
200204,205199,
199630,204847,
199005,204400,
198210,203802,
197479,203276,
196603,202535,
195958,201966,
195125,201327,
194357,200780,
193445,200092,
192427,199307,
191527,198558,
190980,198173,
190436,197721,
189608,197113,
189072,196723,
188389,196450,
187926,196136,
187540,195932,
187125,195668,
186852,195560,
186671,195495,
186437,195431,
186293,195336,
186105,195247,
185858,195166,
185676,195058,
185188,194670,
184745,194384,
184501,194279,
184307,194193,
184028,194070,
183728,193829,
183217,193464,
182803,193202,
182596,193106,
182407,193078,
182301,193054,
182150,193021,
182049,192991,
181918,192976,
181845,192984,
181811,193045,
181797,193103,
181741,193140,
181721,193190,
181738,193287,
181790,193370,
181829,193471,
181850,193561,
181846,193596,
181840,193644,
181854,193695,
181847,193710,
181774,193693,
181647,193663,
181468,193615,
181249,193563,
181020,193534,
180823,193512,
180596,193471,
180408,193453,
180291,193457,
180289,193545,
180465,193603,
180463,193652,
180443,193719,
180484,193797,
180544,193898,
180636,193984,
180684,194053,
180781,194152,
180887,194274,
181016,194389,
181142,194516,
181248,194617,
181371,194749,
181451,194837,
181540,194944,
181633,195046,
181718,195123,
181768,195185,
181801,195227,
181777,195234,
181765,195251,
181770,195321,
181822,195416,
181890,195496,
181947,195601,
182004,195720,
182075,195830,
182150,195927,
182231,196038,
182344,196162,
182418,196261,
182528,196380,
182664,196555,
182832,196705,
182983,196846,
183066,196932,
183128,197006,
183184,197090,
183252,197180,
183391,197332,
183496,197445,
183570,197535,
183621,197617,
183668,197666,
183695,197696,
183663,197693,
183628,197709,
183625,197728,
183599,197732,
183612,197794,
183670,197875,
183745,197934,
183818,198028,
183909,198110,
183956,198198,
184037,198256,
184066,198284,
184100,198357,
184122,198392,
184128,198435,
184180,198486,
184208,198513,
184231,198573,
184272,198610,
184304,198650,
184354,198693,
184393,198761,
184434,198794,
184485,198870,
184594,198927,
184640,198975,
184706,199021,
184722,199050,
184708,199060,
184713,199067,
184739,199090,
184773,199150,
184847,199212,
184900,199308,
185018,199392,
185118,199477,
185203,199558,
185276,199626,
185342,199700,
185408,199737,
185473,199798,
185548,199862,
185638,199953,
185739,200023,
185808,200103,
185926,200179,
186013,200259,
186116,200354,
186186,200434,
186200,200508,
186143,200535,
186016,200520,
185785,200503,
185598,200455,
185413,200442,
185274,200436,
185157,200473,
185102,200481,
185075,200551,
185078,200623,
185111,200685,
185148,200737,
185169,200773,
185169,200784,
185122,200778,
185100,200784,
185106,200792,
185151,200852,
185176,200912,
185247,201012,
185309,201095,
185374,201143,
185421,201234,
185497,201284,
185529,201367,
185600,201416,
185624,201475,
185631,201495,
185627,201522,
185607,201529,
185569,201538,
185547,201534,
185521,201537,
185447,201511,
185385,201504,
185348,201491,
185301,201468,
185259,201475,
185264,201504,
185263,201512,
185261,201515,
185228,201525,
185225,201521,
185245,201520,
185269,201564,
185309,201614,
185355,201649,
185374,201674,
185418,201691,
185427,201711,
185452,201740,
185467,201760,
185502,201831,
185561,201912,
185656,201988,
185789,202091,
185919,202202,
186064,202284,
186155,202363,
186229,202421,
186266,202459,
186311,202487,
186340,202525,
186409,202568,
186483,202649,
186566,202705,
186656,202771,
186717,202815,
186788,202876,
186847,202927,
186867,202944,
186878,202974,
186903,202984,
186928,202999,
186962,203047,
187029,203112,
187115,203167,
187197,203237,
187277,203308,
187361,203386,
187484,203453,
187588,203557,
187729,203644,
187863,203778,
188039,203874,
188160,203975,
188296,204072,
188437,204166,
188524,204251,
188630,204304,
188674,204346,
188775,204401,
188797,204415,
188831,204448,
188858,204466,
188850,204459,
188794,204442,
188663,204379,
188474,204292,
188235,204202,
187990,204125,
187769,204078,
187618,204056,
187502,204064,
187476,204096,
187457,204134,
187465,204182,
187492,204225,
187509,204269,
187561,204352,
187659,204423,
187773,204492,
187890,204615,
187996,204666,
188066,204750,
188112,204760,
188155,204845,
188178,204859,
188192,204919,
188225,204868,
188199,204912,
188158,204860,
188096,204883,
188027,204778,
187899,204779,
187792,204707,
187674,204681,
187580,204642,
187503,204624,
187407,204598,
187353,204593,
187316,204576,
187282,204596,
187280,204594,
187277,204614,
187277,204614,
187234,204574,
187161,204546,
187104,204498,
187034,204466,
186996,204442,
186998,204463,
187012,204476,
187034,204477,
186984,204412,
186791,204245,
186669,204167,
186550,204080,
186472,204044,
186385,203961,
186267,203908,
186225,203874,
186218,203884,
186239,203911,
186243,203927,
186262,203948,
186286,203951,
186276,203962,
186267,203945,
186283,203973,
186287,203999,
186325,204022,
186376,204045,
186420,204085,
186475,204124,
186531,204181,
186601,204223,
186660,204274,
186714,204319,
186765,204355,
186837,204415,
186880,204423,
186900,204462,
186932,204454,
186900,204420,
186879,204425,
186868,204401,
186860,204401,
186810,204359,
186842,204396,
186867,204425,
186940,204464,
186982,204485,
187009,204508,
187014,204512,
187016,204526,
187053,204541,
187123,204604,
187188,204633,
187219,204664,
187222,204669,
187197,204637,
187067,204598,
186926,204496,
186689,204388,
186438,204261,
186167,204155,
185917,204069,
185747,203987,
185622,203957,
185528,203939,
185437,203864,
185218,203711,
185021,203535,
184795,203398,
184625,203271,
184530,203219,
184463,203153,
184377,203126,
184283,203027,
184173,202951,
184078,202904,
184025,202843,
183966,202819,
183912,202790,
183899,202776,
183908,202796,
183901,202775,
183838,202720,
183626,202537,
183389,202365,
183109,202149,
182865,201969,
182692,201833,
182587,201818,
182600,201872,
182611,201901,
182636,201893,
182613,201871,
182595,201854,
182549,201812,
182519,201802,
182356,201630,
182222,201501,
182174,201456,
182100,201414,
181981,201273,
181807,201145,
181743,201079,
181702,201060,
181728,201044,
181733,201094,
181774,201129,
181838,201167,
181864,201192,
181900,201231,
181944,201285,
182006,201315,
182058,201359,
182090,201398,
182166,201466,
182242,201529,
182312,201577,
182382,201640,
182447,201706,
182515,201728,
182583,201760,
182606,201799,
182633,201801,
182680,201854,
182750,201915,
182855,201989,
182945,202066,
183046,202111,
183086,202161,
183130,202174,
183154,202211,
183208,202237,
183250,202273,
183316,202325,
183374,202376,
183452,202400,
183508,202467,
183562,202505,
183624,202543,
183702,202609,
183781,202692,
183885,202774,
184011,202855,
184134,202964,
184231,203023,
184266,203023,
184265,203024,
184214,203001,
184199,203035,
184002,202811,
183883,202780,
183842,202773,
183761,202804,
183682,202804,
183495,202725,
183303,202636,
183111,202577,
182942,202474,
182686,202308,
182643,202337,
182657,202385,
182751,202471,
182847,202566,
182943,202636,
183000,202687,
183040,202717,
183060,202723,
183070,202734,
183057,202739,
183079,202766,
183101,202772,
183069,202742,
183008,202743,
183053,202770,
183056,202784,
183086,202790,
183061,202767,
182982,202699,
182999,202715,
183036,202775,
183080,202821,
183082,202855,
183101,202866,
183106,202865,
183123,202880,
183105,202884,
183124,202915,
183155,202950,
183191,202985,
183262,203034,
183315,203081,
183350,203107,
183393,203135,
183403,203136,
183413,203143,
183428,203148,
183365,203068,
183237,202950,
183251,202976,
183274,203027,
183330,203067,
183399,203095,
183462,203165,
183516,203205,
183538,203207,
183542,203207,
183544,203197,
183569,203239,
183638,203293,
183706,203341,
183759,203418,
183844,203460,
183893,203499,
183934,203523,
183952,203543,
183990,203576,
184009,203584,
184010,203585,
184006,203571,
184032,203596,
184084,203613,
184114,203636,
184157,203690,
184263,203772,
184343,203855,
184447,203925,
184514,203996,
184583,204042,
184591,204022,
184570,203982,
184396,203752,
184045,203473,
183916,203365,
183715,203177,
183599,203094,
183410,202856,
183057,202564,
182708,202183,
181968,201466,
181578,201172,
181246,200918,
181021,200801,
181030,200845,
181115,200956,
181201,201055,
181283,201105,
181234,201032,
181079,200851,
180476,200262,
180309,200143,
180180,200084,
180099,200041,
180053,200084,
180000,200102,
179884,200132,
179806,200154,
179723,200195,
179648,200211,
179558,200191,
179463,200171,
179284,199996,
179002,199784,
178975,199789,
178950,199771,
178941,199782,
178945,199787,
178977,199821,
178991,199844,
179043,199928,
179125,200009,
179199,200093,
179296,200216,
179405,200328,
179486,200397,
179483,200434,
179491,200438,
179501,200459,
179548,200477,
179647,200582,
179781,200706,
179856,200797,
179938,200860,
179997,200925,
180027,200931,
180009,200946,
180013,200959,
180071,200999,
180080,201040,
180151,201107,
180155,201091,
180183,201100,
180179,201113,
180219,201152,
180306,201227,
180431,201323,
180500,201408,
180591,201447,
180624,201495,
180660,201483,
180599,201414,
179919,200595,
179420,200276,
179437,200287,
179480,200392,
179603,200485,
179519,200364,
179409,200261,
179444,200333,
179518,200389,
179541,200393,
179565,200422,
179612,200458,
179706,200538,
179826,200644,
179936,200745,
180035,200854,
180160,200921,
180232,201010,
180299,201054,
180371,201118,
180447,201174,
180491,201252,
180554,201269,
180617,201331,
180682,201377,
180756,201445,
180798,201465,
180893,201542,
180970,201588,
181005,201635,
181075,201667,
181145,201720,
181213,201775,
181272,201823,
181342,201883,
181406,201923,
181457,201987,
181493,201992,
181548,202025,
181574,202070,
181637,202124,
181740,202195,
181801,202265,
181925,202353,
182030,202424,
182090,202492,
182171,202570,
182297,202668,
182424,202771,
182550,202848,
182653,202940,
182749,203024,
182830,203087,
182889,203113,
182920,203134,
182936,203153,
182964,203158,
182960,203148,
182874,203101,
182737,203029,
182567,202929,
182344,202839,
182172,202774,
182001,202745,
181909,202728,
181841,202716,
181814,202734,
181800,202759,
181818,202766,
181824,202788,
181838,202804,
181823,202815,
181855,202833,
181879,202834,
181960,202894,
182015,202957,
182130,203087,
182245,203192,
182294,203236,
182321,203258,
182300,203288,
182331,203295,
182354,203308,
182391,203358,
182466,203430,
182532,203452,
182535,203450,
182525,203439,
182496,203430,
182480,203427,
182536,203481,
182599,203547,
182673,203601,
182763,203705,
182810,203743,
182845,203756,
182852,203751,
182856,203733,
182846,203730,
182874,203770,
182949,203814,
183036,203890,
183104,203967,
183200,204007,
183275,204055,
183337,204107,
183391,204158,
183509,204213,
183556,204290,
183611,204322,
183626,204331,
183671,204322,
183639,204335,
183707,204360,
183752,204416,
183816,204441,
183875,204479,
183905,204517,
183947,204554,
184014,204587,
184082,204621,
184121,204676,
184083,204548,
183771,204273,
183731,204258,
183737,204239,
183753,204263,
183769,204264,
183794,204298,
183845,204323,
183882,204333,
183953,204397,
184000,204434,
184042,204482,
184133,204546,
184207,204605,
184280,204673,
184372,204732,
184441,204799,
184532,204863,
184613,204947,
184697,204998,
184783,205056,
184875,205134,
184956,205191,
185039,205278,
185122,205334,
185204,205400,
185276,205418,
185326,205472,
185409,205512,
185458,205554,
185509,205609,
185611,205676,
185667,205708,
185730,205782,
185812,205829,
185902,205925,
185982,205967,
186052,205995,
186118,206055,
186168,206087,
186227,206113,
186272,206134,
186308,206156,
186322,206153,
186352,206186,
186412,206215,
186444,206267,
186428,206253,
186349,206230,
186189,206186,
186035,206119,
185863,206058,
185681,205987,
185561,205926,
185439,205890,
185380,205876,
185365,205888,
185393,205937,
185429,205961,
185512,206008,
185532,206031,
185572,206063,
185625,206070,
185667,206106,
185659,206109,
185690,206133,
185718,206138,
185721,206194,
185758,206226,
185839,206295,
185913,206356,
186005,206406,
186033,206449,
186087,206486,
186127,206500,
186175,206537,
186214,206582,
186245,206603,
186262,206638,
186342,206700,
186402,206762,
186493,206832,
186561,206903,
186637,206944,
186679,206980,
186713,207015,
186769,207029,
186821,207078,
186871,207106,
186923,207139,
187009,207224,
187107,207273,
187199,207338,
187299,207415,
187391,207484,
187430,207514,
187439,207482,
187450,207472,
187444,207448,
187456,207443,
187495,207480,
187549,207523,
187609,207565,
187644,207593,
187685,207612,
187736,207647,
187784,207698,
187830,207725,
187872,207747,
187894,207744,
187904,207748,
187913,207736,
187966,207775,
187988,207800,
188040,207839,
188074,207851,
188117,207871,
188159,207893,
188175,207902,
188224,207922,
188240,207933,
188259,207896,
188011,207628,
187938,207597,
187944,207600,
187945,207592,
187945,207578,
187956,207586,
187965,207572,
187940,207565,
187959,207570,
187981,207566,
187994,207584,
188034,207598,
188082,207656,
188150,207681,
188166,207691,
188169,207716,
188220,207702,
188210,207729,
188258,207735,
188292,207749,
188287,207767,
188344,207789,
188387,207802,
188435,207836,
188468,207823,
188466,207830,
188448,207796,
188450,207788,
188466,207779,
188472,207797,
188420,207742,
188333,207702,
188213,207624,
188017,207534,
187463,206980,
187016,206745,
186752,206621,
186624,206569,
186520,206519,
186466,206506,
186415,206481,
186380,206433,
186352,206433,
186368,206448,
186412,206472,
186448,206513,
186528,206555,
186582,206610,
186653,206663,
186709,206718,
186714,206709,
186716,206725,
186673,206682,
186634,206634,
186592,206631,
186605,206599,
186605,206602,
186632,206625,
186651,206630,
186660,206621,
186651,206623,
186638,206605,
186602,206569,
186524,206465,
186162,206112,
186041,206014,
185951,205967,
185808,205751,
185630,205640,
185603,205616,
185572,205613,
185565,205592,
185573,205573,
185563,205540,
185536,205530,
185559,205536,
185599,205556,
185658,205578,
185679,205599,
185711,205610,
185749,205643,
185779,205656,
185742,205584,
185646,205502,
185612,205484,
185639,205504,
185671,205522,
185729,205556,
185768,205608,
185812,205625,
185840,205632,
185851,205635,
185894,205660,
185918,205670,
185931,205686,
185971,205724,
186021,205736,
186054,205757,
186067,205768,
186065,205726,
186041,205700,
186010,205675,
185988,205645,
185997,205656,
186006,205645,
186014,205645,
186002,205654,
186059,205678,
186098,205691,
186137,205730,
186179,205760,
186195,205767,
186210,205755,
186204,205749,
186192,205721,
186190,205675,
186163,205653,
186167,205654,
186206,205699,
186244,205734,
186324,205734,
186330,205748,
186327,205751,
186335,205751,
186361,205760,
186382,205785,
186407,205812,
186490,205848,
186528,205874,
186594,205932,
186702,206016,
186778,206091,
186868,206134,
186921,206157,
186963,206207,
186963,206189,
186953,206157,
186920,206137,
186804,206086,
186671,206053,
186530,206004,
186388,205927,
186224,205867,
186131,205822,
186002,205768,
185920,205717,
185859,205695,
185865,205704,
185892,205739,
185922,205768,
185988,205804,
186037,205831,
186081,205871,
186128,205876,
186137,205893,
186160,205908,
186201,205937,
186251,205993,
186296,206043,
186379,206114,
186429,206176,
186521,206246,
186599,206270,
186651,206304,
186661,206300,
186647,206284,
186596,206245,
186602,206238,
186579,206224,
186584,206222,
186614,206256,
186647,206322,
186735,206357,
186813,206424,
186876,206471,
186928,206512,
186936,206508,
186965,206504,
186940,206474,
186942,206447,
186935,206446,
186937,206448,
186984,206458,
187011,206460,
187042,206484,
187063,206484,
187082,206488,
187076,206469,
187098,206472,
187092,206474,
187098,206453,
187097,206456,
187107,206454,
187095,206428,
187068,206371,
187018,206304,
186916,206217,
186827,206134,
186775,206075,
186732,206047,
186720,206027,
186711,206009,
186683,206013,
186701,205989,
186695,205960,
186656,205927,
186631,205881,
186576,205847,
186543,205798,
186545,205798,
186542,205792,
186597,205837,
186660,205881,
186756,205951,
186814,206003,
186870,206024,
186907,206063,
186936,206073,
186955,206073,
186989,206088,
187051,206125,
187085,206134,
187135,206155,
187164,206180,
187214,206205,
187262,206242,
187321,206290,
187403,206323,
187441,206375,
187490,206404,
187543,206446,
187588,206467,
187605,206463,
187636,206484,
187645,206466,
187662,206479,
187690,206515,
187743,206544,
187796,206589,
187835,206596,
187894,206626,
187932,206654,
187981,206686,
188000,206686,
188015,206683,
187986,206661,
187943,206612,
187913,206564,
187848,206497,
187773,206452,
187661,206405,
187541,206382,
187393,206311,
187232,206245,
187104,206191,
186997,206127,
186869,206068,
186812,206028,
186773,206029,
186787,206051,
186800,206060,
186856,206081,
186868,206093,
186908,206096,
186918,206092,
186940,206112,
186958,206124,
186966,206134,
187017,206190,
187071,206207,
187117,206244,
187150,206276,
187202,206330,
187263,206383,
187316,206403,
187333,206390,
187339,206383,
187332,206369,
187298,206338,
187280,206323,
187286,206323,
187309,206363,
187353,206408,
187437,206488,
187515,206532,
187589,206604,
187638,206648,
187680,206659,
187690,206650,
187679,206623,
187651,206605,
187642,206555,
187650,206568,
187657,206578,
187702,206613,
187788,206654,
187871,206708,
187904,206748,
187962,206756,
187971,206752,
187986,206752,
187998,206767,
187988,206750,
188008,206744,
188026,206749,
188065,206769,
188103,206802,
188167,206852,
188208,206870,
188251,206903,
188241,206884,
188256,206895,
188256,206892,
188266,206868,
188285,206860,
188292,206863,
188328,206869,
188352,206894,
188382,206923,
188422,206943,
188487,206965,
188519,206998,
188534,207010,
188583,207046,
188625,207063,
188658,207087,
188693,207105,
188714,207109,
188738,207140,
188792,207168,
188819,207212,
188859,207214,
188835,207156,
188824,207136,
188810,207108,
188825,207108,
188863,207133,
188927,207189,
188998,207259,
189059,207296,
189105,207317,
189140,207339,
189147,207333,
189158,207352,
189188,207351,
189209,207340,
189232,207359,
189306,207418,
189348,207458,
189395,207463,
189425,207483,
189460,207510,
189514,207548,
189530,207542,
189550,207556,
189556,207541,
189574,207530,
189554,207494,
189535,207471,
189451,207447,
189342,207407,
189193,207302,
189029,207230,
188843,207148,
188689,207057,
188563,206981,
188464,206955,
188428,206920,
188421,206945,
188441,206970,
188448,206957,
188458,206974,
188486,206967,
188506,206957,
188517,206985,
188533,206966,
188536,206978,
188549,206989,
188591,207032,
188615,207058,
188659,207079,
188670,207081,
188659,207080,
188640,207049,
188639,207033,
188620,207012,
188653,207016,
188640,207011,
188680,207052,
188700,207060,
188734,207094,
188746,207123,
188775,207121,
188780,207115,
188765,207101,
188751,207099,
188748,207074,
188749,207101,
188809,207111,
188834,207163,
188900,207183,
188912,207208,
188935,207194,
188931,207191,
188936,207186,
188956,207164,
188972,207188,
189012,207204,
189046,207236,
189097,207243,
189146,207273,
189154,207294,
189187,207279,
189211,207303,
189228,207313,
189256,207321,
189279,207305,
189269,207331,
189290,207342,
189319,207372,
189380,207397,
189415,207417,
189463,207438,
189494,207461,
189527,207465,
189544,207456,
189551,207491,
189616,207502,
189657,207533,
189706,207589,
189737,207589,
189780,207604,
189806,207620,
189824,207620,
189848,207643,
189882,207659,
189892,207639,
189880,207620,
189867,207625,
189872,207621,
189898,207618,
189919,207629,
189942,207635,
189957,207644,
189977,207640,
189985,207641,
189992,207641,
190017,207655,
190029,207658,
190040,207654,
190052,207676,
190081,207683,
190113,207702,
190148,207739,
190200,207764,
190255,207793,
190294,207822,
190339,207847,
190384,207896,
190420,207915,
190479,207942,
190531,207976,
190551,207975,
190552,207945,
190552,207925,
190542,207914,
190506,207870,
190406,207814,
190271,207746,
190119,207677,
189946,207591,
189796,207535,
189662,207466,
189551,207410,
189428,207344,
189334,207293,
189270,207237,
189238,207220,
189228,207180,
189219,207168,
189232,207166,
189229,207181,
189291,207203,
189326,207251,
189388,207279,
189373,207256,
189361,207235,
189332,207210,
189294,207177,
189284,207160,
189278,207161,
189275,207147,
189274,207146,
189274,207131,
189284,207118,
189266,207121,
189261,207116,
189257,207103,
189236,207127,
189263,207120,
189293,207155,
189335,207168,
189365,207201,
189393,207224,
189461,207253,
189538,207309,
189607,207371,
189660,207389,
189710,207408,
189730,207419,
189756,207436,
189802,207464,
189828,207490,
189890,207510,
189910,207532,
189969,207563,
190018,207574,
190046,207598,
190061,207612,
190087,207649,
190099,207618,
190083,207609,
190054,207566,
190024,207519,
189988,207507,
189999,207509,
190026,207533,
190051,207529,
190065,207544,
190076,207534,
190097,207551,
190091,207557,
190122,207564,
190133,207562,
190153,207563,
190172,207563,
190194,207586,
190213,207597,
190247,207597,
190268,207616,
190269,207623,
190285,207627,
190296,207618,
190322,207631,
190324,207632,
190362,207634,
190337,207604,
190303,207570,
190293,207561,
190267,207541,
190262,207527,
190297,207559,
190350,207597,
190383,207635,
190435,207632,
190428,207637,
190448,207650,
190453,207623,
190461,207640,
190483,207665,
190515,207670,
190542,207670,
190533,207649,
190514,207609,
190489,207575,
190437,207513,
190339,207483,
190296,207437,
190202,207378,
190095,207307,
189957,207240,
189836,207209,
189705,207147,
189563,207102,
189486,207081,
189423,207048,
189397,207037,
189368,207022,
189359,207013,
189362,207003,
189366,207015,
189404,207039,
189440,207052,
189491,207076,
189534,207136,
189595,207174,
189672,207236,
189741,207293,
189805,207332,
189859,207363,
189887,207411,
189915,207391,
189935,207411,
189956,207418,
189988,207424,
189988,207419,
189990,207415,
189995,207425,
189978,207426,
190000,207439,
190004,207461,
190017,207475,
190025,207474,
190034,207485,
190087,207512,
190130,207542,
190162,207586,
190209,207588,
190209,207584,
190247,207579,
190207,207550,
190219,207549,
190239,207530,
190234,207534,
190250,207541,
190283,207558,
190281,207550,
190335,207557,
190364,207575,
190359,207577,
190342,207547,
190339,207551,
190302,207530,
190325,207502,
190320,207509,
190325,207516,
190311,207519,
190304,207521,
190335,207513,
190338,207516,
190342,207522,
190333,207515,
190341,207519,
190308,207487,
190298,207484,
190302,207481,
190308,207472,
190309,207471,
190331,207490,
190348,207483,
190317,207465,
190314,207436,
190300,207438,
190306,207423,
190314,207432,
190343,207468,
190364,207478,
190418,207511,
190480,207556,
190504,207594,
190526,207585,
190539,207586,
190549,207586,
190559,207580,
190572,207576,
190617,207623,
190682,207668,
190753,207731,
190805,207772,
190866,207788,
190899,207808,
190917,207825,
190932,207820,
190931,207834,
190922,207810,
190884,207749,
190803,207659,
190677,207582,
190517,207515,
190384,207453,
190244,207414,
189902,207094,
189428,206750,
189243,206649,
189115,206602,
189025,206529,
188954,206499,
188897,206439,
188857,206428,
188844,206422,
188865,206417,
188890,206435,
188929,206455,
188926,206456,
188933,206452,
188944,206464,
188946,206452,
188927,206441,
188919,206436,
188935,206440,
188955,206457,
189002,206467,
189027,206516,
189069,206542,
189108,206562,
189123,206601,
189116,206558,
189102,206556,
189074,206529,
189060,206531,
189059,206521,
189060,206555,
189087,206522,
189084,206532,
189062,206503,
189038,206484,
189035,206466,
189040,206473,
189063,206462,
189062,206462,
189079,206474,
189074,206472,
189089,206469,
189117,206468,
189151,206491,
189215,206549,
189288,206602,
189350,206677,
189412,206713,
189463,206723,
189479,206736,
189477,206734,
189476,206722,
189471,206698,
189453,206687,
189469,206682,
189483,206687,
189509,206705,
189544,206735,
189563,206738,
189560,206753,
189598,206756,
189619,206787,
189661,206812,
189694,206820,
189720,206844,
189748,206862,
189797,206881,
189834,206913,
189890,206940,
189921,206975,
189950,206995,
189979,207019,
189994,207014,
190027,207044,
190074,207023,
189664,206617,
189576,206561,
189537,206538,
189528,206542,
189524,206542,
189533,206538,
189550,206530,
189552,206539,
189539,206543,
189539,206531,
189532,206522,
189391,206327,
189113,206086,
189071,206061,
189066,206046,
189034,206050,
189038,206033,
189030,206042,
189042,206062,
189052,206059,
189057,206053,
189025,206056,
188948,206028,
188844,205977,
188694,205891,
188514,205817,
188351,205747,
188195,205667,
188071,205589,
187964,205551,
187909,205516,
187890,205504,
187872,205502,
187850,205497,
187846,205486,
187854,205466,
187804,205430,
187771,205379,
187720,205341,
187708,205326,
187697,205317,
187702,205355,
187742,205395,
187800,205414,
187806,205453,
187722,205305,
187484,205096,
187449,205074,
187425,205056,
187403,205061,
187413,205041,
187429,205038,
187425,205039,
187423,205067,
187422,205103,
187428,205103,
187458,205132,
187485,205153,
187525,205173,
187512,205148,
187503,205145,
187525,205148,
187523,205142,
187546,205156,
187538,205149,
187556,205136,
187576,205149,
187591,205159,
187607,205173,
187637,205182,
187653,205191,
187663,205199,
187648,205190,
187648,205187,
187674,205185,
187686,205159,
187667,205160,
187673,205150,
187673,205145,
187671,205148,
187670,205121,
187660,205144,
187674,205136,
187696,205138,
187720,205148,
187759,205191,
187786,205201,
187810,205218,
187857,205247,
187892,205281,
187938,205333,
187995,205372,
188060,205410,
188125,205457,
188198,205500,
188253,205537,
188284,205592,
188379,205630,
188422,205671,
188492,205743,
188556,205747,
188571,205757,
188588,205764,
188629,205775,
188635,205788,
188666,205798,
188677,205798,
188676,205779,
188680,205774,
188695,205794,
188736,205825,
188823,205910,
188934,205990,
189042,206097,
189151,206177,
189244,206252,
189339,206318,
189427,206403,
189516,206481,
189609,206544,
189675,206608,
189722,206603,
189742,206605,
189722,206569,
189716,206562,
189732,206557,
189729,206553,
189713,206506,
189689,206475,
189682,206463,
189684,206454,
189636,206431,
189577,206400,
189517,206405,
189398,206366,
189275,206320,
189136,206308,
189059,206286,
188979,206239,
188908,206230,
188871,206200,
188824,206187,
188830,206197,
188833,206177,
188859,206211,
188926,206248,
188945,206277,
189004,206324,
189059,206348,
189103,206399,
189164,206448,
189207,206485,
189263,206565,
189338,206629,
189458,206726,
189591,206825,
189746,206950,
189854,207053,
189957,207124,
190052,207177,
190121,207224,
190189,207278,
190250,207340,
190299,207382,
190351,207413,
190397,207472,
190493,207557,
190607,207663,
190665,207719,
190736,207769,
190788,207813,
190845,207849,
190893,207895,
190967,207945,
191053,207992,
191137,208060,
191241,208134,
191356,208213,
191454,208305,
191566,208364,
191647,208472,
191728,208459,
191766,208492,
191606,208209,
191309,207954,
191148,207844,
191052,207755,
190951,207649,
190633,207357,
190408,207188,
190221,207007,
190019,206828,
189762,206613,
189546,206418,
189326,206195,
189086,205990,
188880,205811,
188685,205652,
188476,205443,
188186,205151,
187826,204790,
187348,204304,
186445,203491,
185587,202822,
185202,202586,
184887,202324,
184472,201963,
184159,201668,
183955,201449,
183750,201224,
183620,201082,
183553,201018,
183546,201000,
183603,201011,
183703,201069,
183725,201045,
183519,200829,
183138,200485,
182748,200121,
182379,199805,
182125,199578,
182039,199416,
181891,199257,
181788,199140,
181701,199015,
181557,198874,
181419,198697,
181217,198505,
181008,198299,
180845,198123,
180680,197925,
180529,197778,
180404,197653,
180286,197505,
180175,197404,
180094,197326,
180058,197225,
179973,197142,
179894,197045,
179760,196902,
179576,196707,
179333,196507,
179167,196379,
179028,196250,
178848,196154,
178711,196049,
178529,195942,
178320,195782,
178077,195600,
177867,195422,
177759,195363,
177685,195303,
177594,195206,
177494,195089,
177424,195045,
177403,194990,
177376,194919,
177361,194885,
177311,194835,
177306,194823,
177299,194779,
177267,194753,
177245,194732,
177246,194741,
177247,194726,
177267,194746,
177283,194734,
177299,194735,
177261,194675,
177258,194659,
177290,194711,
177312,194712,
177308,194715,
177328,194741,
177422,194817,
177483,194899,
177580,194974,
178020,195636,
179506,196977,
180187,197503,
180760,198070,
181601,198804,
182270,199359,
182962,199944,
183278,200155,
183399,200224,
183470,200264,
183635,200420,
184040,200778,
184192,200861,
184309,200969,
184881,201468,
185301,201796,
185656,202022,
185869,202187,
185967,202237,
186003,202269,
186064,202272,
185959,202167,
185803,202013,
185543,201764,
185219,201464,
184944,201214,
184736,201088,
184666,201034,
184654,200999,
184632,200979,
184625,200969,
184637,200934,
184622,200936,
184508,200847,
184285,200687,
184127,200586,
184089,200525,
184017,200433,
183943,200377,

