

219362,197796,
219369,197795,
219366,197795,
219370,197802,
219400,197798,
219422,197824,
219462,197810,
219465,197843,
219476,197855,
219520,197854,
219530,197856,
219554,197876,
219568,197883,
219622,197903,
219658,197922,
219705,197954,
219720,197964,
219774,197994,
219816,198006,
219854,198049,
219874,198044,
219885,198042,
219875,198024,
219884,198020,
219902,198026,
219917,198037,
219938,198034,
219952,198063,
219977,198063,
219980,198075,
220012,198091,
220019,198099,
220054,198105,
220059,198115,
220077,198115,
220083,198123,
220090,198117,
220094,198107,
220080,198110,
220075,198096,
220079,198104,
220113,198097,
220128,198120,
220167,198137,
220177,198168,
220193,198160,
220223,198174,
220224,198155,
220216,198157,
220209,198143,
220230,198154,
220269,198174,
220280,198185,
220249,198170,
220127,198119,
219935,198026,
219679,197898,
219387,197768,
219072,197619,
218765,197493,
218489,197366,
218267,197283,
218168,197247,
218173,197257,
218255,197293,
218367,197341,
218495,197399,
218626,197462,
218725,197494,
218821,197546,
218883,197562,
218920,197607,
218953,197609,
218974,197604,
218993,197626,
219031,197618,
219056,197628,
219119,197643,
219153,197676,
219212,197696,
219246,197705,
219273,197726,
219284,197734,
219300,197734,
219309,197725,
219291,197728,
219298,197720,
219300,197721,
219277,197712,
219279,197720,
219277,197710,
219277,197731,
219303,197739,
219318,197735,
219344,197743,
219372,197742,
219426,197759,
219453,197778,
219477,197793,
219496,197807,
219518,197825,
219550,197828,
219606,197834,
219639,197845,
219658,197871,
219689,197873,
219739,197901,
219752,197902,
219802,197925,
219830,197940,
219855,197952,
219886,197953,
219894,197968,
219914,197989,
219932,197983,
219948,197995,
219961,197997,
219960,197994,
219973,197991,
219976,198007,
219994,198012,
220006,198016,
220027,198033,
220025,198054,
220042,198048,
220050,198034,
220045,198037,
220063,198039,
220055,198031,
220075,198038,
220119,198072,
220140,198077,
220140,198081,
220163,198084,
220120,198056,
220126,198075,
220135,198061,
220157,198067,
220176,198084,
220220,198109,
220257,198135,
220296,198128,
220306,198146,
220289,198143,
220263,198127,
220244,198115,
220176,198065,
220041,197998,
219812,197899,
219539,197790,
219312,197699,
219107,197596,
218923,197538,
218758,197474,
218644,197408,
218606,197392,
218609,197404,
218697,197444,
218772,197478,
218838,197515,
218931,197551,
218989,197595,
219062,197615,
219097,197646,
219158,197651,
219174,197662,
219193,197653,
219191,197639,
219221,197646,
219243,197672,
219311,197695,
219368,197710,
219396,197732,
219434,197744,
219444,197761,
219480,197750,
219463,197747,
219452,197729,
219424,197728,
219415,197714,
219412,197710,
219413,197700,
219414,197690,
219419,197711,
219419,197702,
219443,197715,
219447,197718,
219458,197720,
219470,197725,
219475,197733,
219510,197730,
219552,197739,
219603,197772,
219659,197792,
219683,197796,
219700,197819,
219715,197808,
219711,197787,
219713,197794,
219736,197820,
219794,197844,
219844,197861,
219865,197900,
219914,197931,
219951,197954,
219954,197923,
219957,197926,
219972,197917,
219979,197910,
219995,197933,
219998,197941,
220008,197939,
220032,197942,
220037,197955,
220053,197948,
220049,197949,
220055,197947,
220052,197928,
220047,197929,
220050,197954,
220076,197950,
220091,197983,
220131,197979,
220132,197997,
220142,197987,
220129,198006,
220121,197971,
220133,197971,
220144,197982,
220166,197995,
220182,197990,
220198,198012,
220228,198012,
220258,198025,
220287,198043,
220300,198069,
220318,198077,
220293,198061,
220241,198025,
220114,197964,
219921,197865,
219665,197759,
219440,197658,
219236,197580,
219051,197511,
218903,197445,
218792,197426,
218755,197409,
218758,197431,
218788,197417,
218859,197462,
218917,197474,
219002,197516,
219078,197547,
219161,197590,
219229,197617,
219273,197619,
219330,197673,
219362,197669,
219388,197675,
219412,197680,
219436,197692,
219488,197702,
219546,197735,
219584,197746,
219635,197782,
219639,197815,
219654,197798,
219643,197776,
219615,197763,
219580,197724,
219576,197734,
219563,197726,
219591,197742,
219605,197749,
219609,197750,
219612,197744,
219631,197770,
219636,197736,
219645,197747,
219648,197755,
219692,197756,
219709,197787,
219741,197800,
219749,197800,
219792,197822,
219833,197835,
219857,197850,
219865,197848,
219890,197842,
219922,197856,
219938,197872,
219982,197884,
220018,197884,
220017,197911,
220024,197928,
220030,197911,
220025,197909,
220016,197890,
220037,197903,
220064,197911,
220082,197921,
220091,197906,
220108,197924,
220117,197938,
220119,197941,
220109,197942,
220129,197942,
220110,197926,
220136,197933,
220144,197937,
220167,197936,
220154,197956,
220149,197930,
220157,197945,
220189,197949,
220179,197937,
220173,197946,
220187,197947,
220161,197940,
220156,197919,
220151,197915,
220184,197912,
220206,197932,
220236,197940,
220251,197955,
220269,197965,
220255,197945,
220206,197919,
220072,197883,
219876,197772,
219676,197698,
219461,197599,
219226,197494,
219077,197414,
218946,197384,
218894,197380,
218881,197382,
218956,197415,
219036,197447,
219073,197489,
219153,197503,
219204,197526,
219261,197541,
219281,197547,
219355,197594,
219417,197612,
219460,197632,
219513,197648,
219548,197686,
219586,197704,
219621,197717,
219678,197723,
219732,197746,
219777,197755,
219802,197759,
219797,197773,
219789,197773,
219803,197754,
219753,197751,
219761,197735,
219768,197745,
219741,197741,
219733,197743,
219761,197744,
219756,197721,
219753,197736,
219766,197721,
219742,197722,
219740,197728,
219759,197723,
219791,197738,
219813,197760,
219850,197766,
219879,197777,
219896,197787,
219914,197791,
219954,197799,
219950,197804,
219965,197797,
219993,197825,
220042,197821,
220060,197826,
220102,197837,
220101,197853,
220104,197870,
220089,197849,
220105,197850,
220113,197846,
220113,197861,
220137,197874,
220172,197882,
220194,197897,
220189,197891,
220211,197904,
220219,197905,
220212,197907,
220208,197905,
220192,197893,
220183,197872,
220172,197874,
220171,197869,
220173,197874,
220187,197872,
220186,197885,
220202,197880,
220232,197886,
220243,197890,
220236,197903,
220244,197886,
220254,197892,
220275,197907,
220256,197906,
220281,197917,
220288,197907,
220315,197922,
220250,197890,
220143,197842,
219934,197747,
219728,197657,
219512,197555,
219313,197468,
219144,197394,
219029,197357,
218943,197338,
218931,197344,
218942,197357,
218983,197374,
219024,197420,
219108,197428,
219168,197455,
219239,197490,
219292,197521,
219362,197524,
219412,197562,
219452,197573,
219465,197578,
219490,197598,
219534,197601,
219594,197615,
219616,197637,
219667,197670,
219711,197670,
219737,197693,
219748,197704,
219739,197694,
219746,197678,
219727,197678,
219721,197662,
219687,197650,
219689,197651,
219670,197653,
219666,197641,
219692,197634,
219699,197639,
219695,197642,
219712,197636,
219718,197659,
219740,197650,
219776,197678,
219783,197683,
219794,197694,
219844,197709,
219883,197724,
219914,197735,
219916,197756,
219939,197747,
219958,197744,
219963,197743,
219985,197781,
220015,197771,
220061,197781,
220093,197791,
220100,197786,
220095,197784,
220106,197784,
220099,197794,
220117,197793,
220106,197791,
220131,197798,
220120,197785,
220147,197806,
220155,197788,
220168,197807,
220176,197801,
220205,197803,
220183,197807,
220173,197811,
220143,197780,
220148,197774,
220116,197761,
220118,197764,
220126,197754,
220136,197768,
220181,197763,
220201,197770,
220223,197785,
220212,197775,
220217,197776,
220182,197773,
220184,197758,
220205,197761,
220239,197772,
220252,197783,
220263,197803,
220271,197809,
220280,197806,
220233,197776,
220154,197723,
219967,197644,
219717,197576,
219549,197475,
219329,197368,
219168,197326,
219058,197266,
218970,197272,
218959,197273,
218948,197279,
218979,197292,
219007,197308,
219038,197330,
219099,197359,
219176,197384,
219269,197434,
219344,197447,
219398,197484,
219444,197505,
219453,197504,
219469,197505,
219491,197500,
219523,197513,
219576,197552,
219630,197593,
219674,197602,
219730,197621,
219748,197637,
219766,197640,
219777,197643,
219768,197637,
219760,197624,
219717,197612,
219702,197594,
219693,197600,
219688,197594,
219688,197582,
219712,197605,
219731,197608,
219743,197612,
219751,197601,
219755,197606,
219766,197595,
219787,197618,
219793,197627,
219834,197616,
219848,197618,
219847,197634,
219856,197621,
219864,197639,
219880,197639,
219904,197642,
219912,197627,
219921,197639,
219927,197635,
219944,197633,
219959,197646,
219987,197653,
220018,197667,
220035,197668,
220033,197672,
220042,197655,
220017,197674,
220038,197666,
220039,197665,
220037,197684,
220093,197688,
220105,197730,
220113,197743,
220126,197742,
220135,197754,
220141,197755,
220134,197742,
220122,197745,
220114,197742,
220119,197714,
220132,197720,
220167,197737,
220177,197752,
220247,197803,
220272,197812,
220270,197810,
220267,197800,
220285,197813,
220283,197801,
220297,197810,
220311,197813,
220328,197839,
220321,197831,
220234,197789,
220086,197722,
219896,197629,
219703,197542,
219536,197465,
219352,197383,
219233,197333,
219123,197314,
219105,197307,
219113,197323,
219170,197349,
219208,197371,
219281,197398,
219314,197421,
219391,197419,
219428,197441,
219469,197481,
219543,197501,
219583,197515,
219642,197539,
219666,197538,
219689,197555,
219746,197567,
219778,197581,
219811,197585,
219847,197621,
219871,197629,
219907,197613,
219898,197614,
219894,197613,
219885,197623,
219866,197603,
219856,197601,
219844,197585,
219832,197590,
219804,197577,
219821,197579,
219825,197587,
219856,197602,
219872,197602,
219888,197612,
219895,197618,
219921,197628,
219928,197646,
219945,197637,
219945,197627,
219970,197633,
220023,197670,
220062,197702,
220101,197725,
220154,197753,
220181,197763,
220177,197763,
220181,197746,
220178,197752,
220177,197754,
220199,197743,
220223,197761,
220256,197778,
220279,197793,
220300,197810,
220313,197818,
220301,197815,
220280,197794,
220294,197785,
220282,197777,
220287,197763,
220280,197757,
220277,197777,
220289,197763,
220289,197785,
220264,197764,
220285,197775,
220294,197767,
220304,197765,
220300,197762,
220325,197767,
220342,197761,
220335,197767,
220341,197776,
220360,197794,
220365,197806,
220383,197790,
220335,197754,
220248,197701,
220081,197646,
219898,197533,
219716,197472,
219544,197409,
219420,197356,
219308,197311,
219248,197305,
219205,197269,
219199,197273,
219241,197306,
219275,197307,
219323,197341,
219386,197359,
219444,197383,
219487,197397,
219548,197425,
219584,197441,
219622,197457,
219663,197458,
219698,197479,
219739,197490,
219754,197524,
219779,197530,
219825,197539,
219863,197553,
219870,197560,
219887,197561,
219911,197571,
219897,197567,
219893,197573,
219872,197561,
219871,197556,
219885,197548,
219873,197541,
219870,197543,
219845,197539,
219821,197536,
219836,197526,
219823,197508,
219868,197525,
219888,197540,
219900,197546,
219951,197571,
219980,197588,
220018,197607,
220054,197630,
220056,197628,
220064,197612,
220065,197614,
220081,197606,
220088,197613,
220093,197604,
220126,197620,
220164,197630,
220182,197667,
220201,197691,
220230,197707,
220246,197685,
220251,197701,
220250,197714,
220231,197706,
220238,197697,
220234,197680,
220246,197696,
220241,197704,
220286,197728,
220299,197747,
220300,197738,
220278,197740,
220299,197717,
220298,197708,
220288,197718,
220289,197699,
220311,197724,
220325,197718,
220356,197753,
220380,197761,
220390,197780,
220405,197763,
220407,197769,
220373,197759,
220387,197753,
220374,197742,
220372,197744,
220272,197690,
220141,197626,
219962,197551,
219783,197486,
219642,197431,
219484,197342,
219370,197300,
219293,197277,
219304,197289,
219324,197296,
219349,197319,
219397,197351,
219465,197380,
219521,197412,
219566,197450,
219610,197460,
219673,197489,
219707,197495,
219725,197513,
219788,197516,
219781,197536,
219820,197555,
219842,197564,
219877,197574,
219907,197590,
219942,197593,
219962,197609,
220000,197628,
219993,197641,
219989,197635,
219988,197631,
220000,197626,
219963,197613,
219951,197595,
219920,197587,
219922,197589,
219919,197579,
219902,197585,
219919,197578,
219955,197627,
219985,197616,
220014,197631,
220025,197640,
220053,197662,
220050,197662,
220051,197656,
220097,197667,
220097,197675,
220114,197702,
220138,197700,
220170,197695,
220197,197719,
220225,197735,
220244,197753,
220276,197760,
220292,197759,
220312,197771,
220329,197752,
220324,197770,
220332,197767,
220347,197794,
220383,197790,
220370,197782,
220374,197789,
220361,197785,
220372,197774,
220370,197775,
220392,197794,
220412,197806,
220413,197813,
220431,197806,
220429,197811,
220421,197775,
220405,197770,
220395,197773,
220404,197777,
220409,197794,
220414,197783,
220410,197793,
220357,197752,
220233,197694,
220026,197608,
219828,197511,
219633,197434,
219488,197379,
219361,197320,
219317,197315,
219305,197306,
219323,197329,
219345,197359,
219364,197368,
219392,197393,
219433,197405,
219451,197408,
219521,197437,
219560,197451,
219600,197475,
219668,197491,
219690,197523,
219735,197528,
219762,197522,
219780,197534,
219828,197572,
219869,197577,
219897,197597,
219933,197620,
219964,197636,
219991,197651,
220027,197650,
219984,197643,
219962,197624,
219941,197614,
219903,197599,
219893,197584,
219895,197583,
219912,197598,
219922,197597,
219924,197623,
219951,197616,
219955,197647,
219991,197641,
219990,197642,
219983,197635,
219979,197637,
220015,197660,
220032,197646,
220040,197649,
220058,197660,
220086,197667,
220117,197666,
220124,197681,
220133,197670,
220150,197688,
220160,197687,
220163,197681,
220183,197703,
220199,197710,
220218,197708,
220221,197715,
220223,197710,
220245,197715,
220235,197700,
220241,197698,
220238,197686,
220249,197691,
220240,197691,
220260,197691,
220265,197697,
220288,197703,
220303,197686,
220300,197697,
220311,197706,
220322,197688,
220335,197696,
220304,197692,
220292,197690,
220216,197639,
220069,197557,
219894,197499,
219749,197431,
219565,197362,
219439,197284,
219292,197248,
219208,197213,
219189,197223,
219200,197205,
219231,197223,
219257,197255,
219329,197280,
219411,197315,
219443,197338,
219482,197370,
219529,197368,
219595,197401,
219604,197396,
219641,197429,
219688,197423,
219708,197458,
219730,197457,
219761,197473,
219826,197521,
219865,197541,
219895,197561,
219923,197558,
219907,197543,
219899,197543,
219880,197522,
219860,197526,
219829,197518,
219813,197511,
219824,197504,
219832,197509,
219847,197532,
219872,197546,
219882,197549,
219889,197539,
219902,197540,
219902,197562,
219916,197549,
219941,197575,
219982,197564,
220003,197602,
220022,197613,
220038,197610,
220053,197619,
220069,197625,
220081,197615,
220108,197620,
220118,197617,
220134,197636,
220154,197634,
220195,197628,
220185,197653,
220207,197670,
220182,197668,
220207,197665,
220221,197658,
220230,197654,
220219,197652,
220213,197647,
220231,197640,
220242,197651,
220257,197636,
220257,197655,
220259,197651,
220286,197650,
220277,197649,
220287,197650,
220307,197661,
220317,197661,
220310,197681,
220337,197682,
220356,197691,
220361,197707,
220403,197712,
220383,197716,
220370,197691,
220319,197678,
220210,197626,
220049,197543,
219879,197468,
219730,197383,
219567,197331,
219419,197269,
219330,197222,
219253,197203,
219199,197200,
219197,197214,
219206,197215,
219251,197223,
219285,197231,
219337,197256,
219361,197282,
219401,197289,
219453,197323,
219511,197360,
219542,197360,
219587,197368,
219584,197360,
219596,197374,
219608,197365,
219609,197383,
219648,197383,
219684,197411,
219721,197416,
219756,197429,
219766,197454,
219790,197448,
219759,197449,
219757,197459,
219726,197438,
219736,197424,
219697,197422,
219734,197413,
219724,197407,
219742,197398,
219742,197422,
219772,197414,
219772,197424,
219784,197410,
219793,197406,
219812,197409,
219798,197409,
219843,197419,
219871,197452,
219898,197439,
219909,197477,
219968,197476,
219969,197489,
219983,197482,
219991,197505,
220009,197504,
220011,197499,
220036,197512,
220048,197513,
220077,197515,
220096,197542,
220106,197546,
220128,197538,
220120,197551,
220123,197540,
220111,197540,
220103,197533,
220096,197540,
220141,197554,
220148,197545,
220169,197558,
220182,197576,
220171,197571,
220183,197571,
220168,197558,
220158,197543,
220134,197535,
220160,197552,
220157,197547,
220185,197542,
220219,197566,
220244,197579,
220268,197598,
220277,197602,
220282,197593,
220270,197585,
220276,197583,
220303,197603,
220276,197590,
220233,197573,
220119,197523,
219980,197450,
219817,197390,
219620,197293,
219429,197215,
219277,197134,
219162,197107,
219085,197101,
219052,197089,
219065,197086,
219092,197108,
219133,197122,
219173,197148,
219250,197170,
219307,197203,
219338,197216,
219384,197231,
219412,197258,
219436,197267,
219472,197269,
219488,197286,
219495,197280,
219507,197296,
219533,197312,
219557,197314,
219597,197335,
219615,197342,
219642,197363,
219637,197355,
219686,197371,
219674,197371,
219665,197362,
219666,197346,
219668,197330,
219632,197333,
219638,197327,
219613,197313,
219636,197318,
219632,197312,
219656,197333,
219697,197351,
219714,197361,
219734,197363,
219740,197383,
219769,197363,
219777,197384,
219786,197378,
219801,197394,
219805,197395,
219819,197390,
219851,197411,
219892,197420,
219909,197433,
219933,197432,
219941,197468,
219956,197458,
219962,197444,
219969,197450,
219971,197464,
219976,197470,
219983,197471,
219993,197471,
220018,197486,
220050,197499,
220049,197510,
220048,197512,
220052,197505,
220050,197501,
220052,197491,
220053,197502,
220048,197502,
220062,197491,
220057,197502,
220067,197491,
220093,197511,
220120,197511,
220122,197530,
220135,197531,
220166,197534,
220172,197538,
220153,197541,
220205,197563,
220211,197580,
220217,197585,
220183,197564,
220132,197535,
220015,197475,
219862,197415,
219741,197343,
219572,197273,
219395,197209,
219246,197152,
219165,197131,
219100,197111,
219107,197119,
219117,197122,
219172,197134,
219229,197176,
219272,197189,
219303,197204,
219354,197238,
219418,197245,
219464,197278,
219496,197282,
219538,197303,
219549,197317,
219552,197307,
219567,197333,
219604,197342,
219647,197348,
219690,197370,
219738,197374,
219738,197420,
219778,197417,
219789,197433,
219789,197411,
219780,197411,
219754,197395,
219754,197392,
219757,197388,
219740,197377,
219767,197379,
219768,197376,
219764,197369,
219776,197382,
219790,197393,
219825,197410,
219851,197409,
219848,197415,
219869,197411,
219888,197406,
219892,197398,
219912,197400,
219937,197404,
219931,197403,
219947,197409,
219969,197403,
219984,197419,
219983,197416,
220001,197423,
219996,197427,
219996,197433,
220025,197411,
220020,197415,
220038,197447,
220064,197438,
220075,197447,
220081,197478,
220092,197476,
220107,197466,
220095,197458,
220103,197448,
220112,197460,
220100,197469,
220097,197475,
220136,197474,
220146,197489,
220169,197479,
220168,197486,
220180,197497,
220175,197500,
220199,197492,
220226,197499,
220205,197505,
220257,197525,
220267,197539,
220292,197546,
220287,197565,
220282,197536,
220254,197547,
220213,197515,
220120,197473,
220001,197405,
219873,197353,
219727,197292,
219564,197202,
219434,197169,
219376,197162,
219354,197141,
219338,197158,
219334,197154,
219368,197155,
219395,197180,
219434,197184,
219456,197195,
219498,197215,
219507,197225,
219556,197245,
219571,197249,
219611,197272,
219646,197284,
219659,197287,
219669,197274,
219718,197284,
219765,197321,
219779,197324,
219783,197331,
219798,197344,
219807,197331,
219830,197337,
219810,197339,
219824,197349,
219809,197328,
219800,197334,
219813,197328,
219819,197329,
219809,197332,
219821,197329,
219804,197314,
219821,197324,
219848,197344,
219856,197351,
219889,197358,
219885,197363,
219904,197358,
219906,197364,
219899,197366,
219918,197385,
219940,197383,
219978,197380,
219972,197414,
220006,197398,
220020,197417,
220042,197422,
220040,197413,
220020,197393,
220039,197399,
220025,197409,
220023,197406,
220058,197411,
220066,197430,
220079,197434,
220090,197456,
220080,197449,
220110,197445,
220095,197426,
220106,197427,
220080,197430,
220107,197440,
220107,197441,
220116,197448,
220134,197451,
220129,197444,
220147,197453,
220153,197458,
220156,197447,
220180,197470,
220162,197474,
220167,197449,
220152,197442,
220181,197430,
220193,197451,
220210,197455,
220220,197478,
220246,197486,
220278,197490,
220274,197489,
220258,197491,
220260,197476,
220260,197476,
220239,197440,
220170,197451,
220099,197408,
219990,197367,
219900,197302,
219777,197257,
219612,197179,
219486,197143,
219415,197115,
219371,197112,
219366,197090,
219390,197119,
219427,197133,
219495,197161,
219557,197200,
219609,197246,
219662,197245,
219681,197257,
219697,197262,
219698,197261,
219701,197259,
219727,197258,
219735,197258,
219756,197283,
219796,197295,
219823,197321,
219868,197325,
219879,197348,
219887,197330,
219891,197328,
219872,197320,
219853,197318,
219857,197295,
219792,197273,
219777,197279,
219786,197283,
219775,197275,
219778,197268,
219779,197280,
219817,197275,
219811,197290,
219814,197285,
219805,197284,
219789,197267,
219815,197258,
219808,197260,
219847,197277,
219856,197276,
219878,197303,
219896,197301,
219930,197304,
219943,197304,
219948,197307,
219932,197290,
219933,197285,
219920,197289,
219938,197282,
219947,197295,
220006,197310,
220037,197319,
220037,197327,
220047,197328,
220022,197314,
220040,197300,
220038,197303,
220040,197311,
220060,197297,
220060,197312,
220067,197317,
220081,197325,
220094,197332,
220082,197340,
220071,197324,
220090,197330,
220090,197341,
220100,197331,
220110,197318,
220103,197316,
220117,197324,
220115,197322,
220116,197306,
220125,197328,
220151,197330,
220169,197337,
220169,197331,
220197,197344,
220216,197356,
220242,197382,
220248,197394,
220281,197415,
220258,197406,
220255,197371,
220170,197334,
220067,197292,
219976,197233,
219861,197193,
219743,197135,
219609,197096,
219520,197048,
219469,197023,
219430,197035,
219440,197027,
219446,197049,
219524,197072,
219553,197090,
219599,197121,
219630,197136,
219653,197150,
219687,197156,
219710,197155,
219724,197167,
219742,197175,
219735,197188,
219777,197198,
219783,197207,
219805,197218,
219844,197229,
219852,197226,
219870,197230,
219878,197223,
219902,197240,
219902,197241,
219900,197228,
219889,197224,
219872,197217,
219885,197198,
219866,197209,
219874,197213,
219850,197200,
219842,197197,
219840,197184,
219841,197173,
219855,197166,
219863,197153,
219879,197168,
219890,197195,
219885,197188,
219915,197193,
219931,197202,
219911,197192,
219925,197194,
219959,197211,
219973,197240,
219982,197218,
219975,197225,
220018,197248,
220030,197234,
220050,197238,
220031,197258,
220033,197256,
220072,197265,
220070,197271,
220070,197290,
220091,197293,
220091,197296,
220100,197294,
220111,197294,
220132,197320,
220161,197324,
220168,197326,
220151,197332,
220161,197333,
220159,197332,
220164,197338,
220190,197334,
220213,197340,
220205,197357,
220240,197354,
220245,197368,
220246,197385,
220299,197390,
220292,197391,
220307,197392,
220298,197379,
220261,197371,
220234,197359,
220146,197304,
220042,197262,
219924,197231,
219853,197185,
219739,197146,
219644,197111,
219551,197068,
219520,197044,
219533,197051,
219549,197054,
219586,197063,
219633,197108,
219679,197125,
219711,197138,
219737,197149,
219749,197155,
219779,197150,
219790,197165,
219812,197173,
219836,197170,
219856,197189,
219888,197198,
219898,197231,
219911,197224,
219932,197246,
219969,197234,
219957,197245,
219961,197231,
219975,197230,
219967,197227,
219961,197219,
219941,197216,
219913,197195,
219902,197185,
219881,197189,
219907,197188,
219898,197181,
219930,197181,
219931,197202,
219952,197204,
219979,197208,
220006,197217,
220001,197245,
220014,197244,
220005,197230,
220012,197212,
220012,197200,
220020,197215,
220023,197219,
220068,197253,
220080,197250,
220090,197266,
220114,197267,
220137,197278,
220119,197261,
220146,197262,
220123,197272,
220143,197254,
220127,197258,
220152,197253,
220176,197263,
220173,197261,
220179,197263,
220160,197248,
220163,197262,
220180,197257,
220168,197253,
220170,197247,
220140,197249,
220179,197243,
220184,197263,
220193,197264,
220195,197256,
220197,197256,
220207,197244,
220208,197267,
220218,197253,
220243,197278,
220246,197278,
220220,197262,
220114,197223,
220007,197181,
219907,197128,
219815,197081,
219696,197048,
219616,197004,
219542,196988,
219502,196970,
219504,196990,
219523,197001,
219573,197017,
219586,197041,
219616,197030,
219655,197045,
219684,197063,
219715,197072,
219719,197076,
219730,197093,
219760,197102,
219763,197097,
219776,197114,
219804,197098,
219813,197102,
219830,197118,
219852,197130,
219887,197162,
219903,197174,
219939,197182,
219924,197207,
219932,197196,
219918,197191,
219897,197170,
219899,197148,
219866,197136,
219878,197135,
219882,197126,
219878,197148,
219889,197149,
219889,197156,
219884,197158,
219898,197153,
219900,197148,
219929,197163,
219950,197167,
219962,197178,
219956,197176,
219964,197158,
219978,197150,
219992,197174,
220015,197179,
220003,197190,
220037,197208,
220065,197218,
220079,197226,
220098,197227,
220095,197243,
220106,197230,
220134,197229,
220119,197234,
220116,197241,
220154,197230,
220140,197230,
220129,197242,
220161,197251,
220161,197272,
220166,197257,
220172,197274,
220174,197281,
220182,197273,
220203,197274,
220208,197270,
220195,197296,
220210,197279,
220233,197290,
220244,197295,
220261,197325,
220268,197313,
220263,197328,
220272,197315,
220293,197324,
220305,197327,
220312,197339,
220298,197337,
220238,197295,
220128,197251,
219989,197193,
219869,197131,
219765,197057,
219682,197021,
219584,196992,
219537,196978,
219516,196977,
219536,196996,
219562,197016,
219582,197023,
219637,197040,
219663,197051,
219700,197055,
219723,197065,
219736,197075,
219728,197071,
219757,197080,
219740,197083,
219791,197084,
219798,197086,
219817,197107,
219844,197116,
219872,197121,
219905,197145,
219940,197167,
219935,197166,
219964,197172,
219951,197166,
219936,197159,
219903,197140,
219892,197124,
219891,197122,
219878,197117,
219890,197126,
219901,197123,
219891,197132,
219898,197136,
219883,197147,
219895,197128,
219908,197105,
219890,197110,
219918,197136,
219929,197139,
219959,197148,
219961,197169,
219990,197167,
220006,197162,
220021,197175,
220038,197172,
220044,197184,
220070,197194,
220086,197183,
220085,197192,
220088,197187,
220126,197204,
220138,197217,
220163,197229,
220147,197237,
220162,197241,
220176,197251,
220175,197249,
220190,197244,
220192,197235,
220199,197232,
220227,197245,
220207,197240,
220193,197230,
220212,197235,
220202,197250,
220211,197238,
220214,197233,
220210,197218,
220225,197237,
220210,197227,
220220,197225,
220236,197229,
220242,197235,
220245,197224,
220259,197233,
220236,197250,
220274,197258,
220276,197250,
220301,197276,
220335,197284,
220345,197295,
220291,197264,
220201,197224,
220053,197152,
219908,197092,
219798,197041,
219677,196986,
219589,196941,
219504,196897,
219499,196918,
219482,196922,
219515,196943,
219551,196947,
219564,196974,
219594,196969,
219630,196986,
219662,197025,
219689,197002,
219716,197031,
219741,197038,
219776,197075,
219784,197081,
219831,197078,
219825,197085,
219846,197081,
219844,197077,
219891,197074,
219916,197106,
219931,197114,
219947,197133,
219960,197143,
219963,197158,
219978,197141,
219956,197134,
219948,197128,
219918,197100,
219910,197088,
219904,197094,
219919,197094,
219928,197107,
219958,197117,
219963,197119,
219965,197126,
219966,197113,
219961,197111,
219989,197105,
219993,197114,
219999,197131,
220017,197132,
220057,197152,
220055,197163,
220059,197176,
220096,197180,
220086,197164,
220121,197176,
220116,197187,
220124,197189,
220153,197206,
220156,197207,
220163,197213,
220197,197234,
220191,197217,
220220,197240,
220204,197230,
220212,197230,
220227,197220,
220222,197231,
220223,197229,
220220,197216,
220222,197237,
220235,197243,
220241,197243,
220284,197238,
220289,197242,
220312,197271,
220313,197258,
220321,197257,
220330,197266,
220332,197273,
220338,197281,
220356,197304,
220376,197303,
220302,197267,
220202,197200,
220060,197151,
219927,197084,
219839,197050,
219745,197000,
219685,196999,
219634,196967,
219633,196975,
219644,197000,
219673,197000,
219703,197031,
219756,197025,
219766,197042,
219802,197039,
219797,197036,
219815,197034,
219833,197054,
219854,197052,
219901,197073,
219922,197093,
219929,197091,
219962,197109,
219979,197111,
219989,197136,
220011,197119,
220048,197142,
220068,197140,
220076,197150,
220058,197157,
220046,197145,
220038,197157,
220029,197139,
220027,197141,
220020,197124,
219987,197100,
219977,197092,
219990,197106,
219999,197120,
220021,197136,
220034,197139,
220041,197132,
220050,197143,
220048,197128,
220052,197121,
220052,197119,
220054,197126,
220076,197105,
220104,197140,
220121,197143,
220134,197152,
220152,197155,
220155,197145,
220136,197146,
220143,197134,
220151,197115,
220172,197130,
220162,197139,
220218,197165,
220205,197147,
220232,197193,
220243,197165,
220257,197174,
220229,197156,
220239,197150,
220192,197132,
220211,197126,
220210,197143,
220231,197152,
220250,197148,
220265,197163,
220304,197173,
220289,197172,
220311,197149,
220303,197149,
220288,197162,
220288,197153,
220265,197164,
220237,197133,
220154,197094,
220056,197043,
219931,196984,
219827,196944,
219748,196913,
219651,196877,
219574,196852,
219543,196855,
219518,196834,
219551,196858,
219563,196865,
219600,196868,
219623,196892,
219649,196899,
219687,196907,
219718,196931,
219750,196962,
219797,196965,
219780,196956,
219786,196958,
219787,196951,
219781,196944,
219805,196952,
219851,196972,
219909,197004,
219915,197014,
219920,197021,
219922,197030,
219899,197012,
219914,197015,
219883,197009,
219891,197002,
219870,197002,
219867,197001,
219884,196999,
219862,196979,
219862,196992,
219862,196971,
219861,196983,
219867,196970,
219864,196976,
219877,196961,
219878,196994,
219903,196971,
219891,196992,
219916,197005,
219954,196998,
219962,197009,
219967,197001,
219978,197009,
219976,196999,
219987,197003,
219989,196999,
220008,196996,
220004,197016,
220022,197042,
220044,197039,
220071,197050,
220063,197069,
220086,197072,
220080,197065,
220093,197060,
220099,197056,
220096,197046,
220088,197055,
220122,197060,
220128,197073,
220120,197056,
220123,197081,
220134,197059,
220138,197055,
220121,197065,
220144,197046,
220138,197058,
220146,197068,
220138,197072,
220145,197060,
220174,197077,
220180,197089,
220177,197083,
220153,197053,
220074,197006,
219960,196968,
219835,196890,
219687,196846,
219572,196789,
219416,196721,
219293,196679,
219230,196652,
219199,196626,
219198,196622,
219232,196643,
219256,196667,
219278,196672,
219322,196686,
219378,196717,
219422,196750,
219472,196787,
219518,196810,
219582,196856,
219603,196881,
219630,196899,
219616,196883,
219596,196876,
219569,196860,
219565,196846,
219585,196837,
219594,196837,
219592,196833,
219589,196843,
219586,196840,
219596,196832,
219587,196836,
219556,196814,
219540,196781,
219490,196747,
219439,196697,
219437,196661,
219402,196657,
219435,196660,
219461,196673,
219483,196682,
219535,196716,
219585,196750,
219581,196792,
219632,196807,
219630,196811,
219679,196834,
219690,196851,
219712,196860,
219728,196865,
219784,196858,
219801,196887,
219835,196893,
219838,196893,
219843,196898,
219862,196904,
219876,196893,
219876,196907,
219893,196912,
219881,196915,
219886,196905,
219905,196929,
219933,196947,
219962,196949,
219968,196950,
219975,196945,
219978,196949,
219985,196942,
219955,196948,
219979,196950,
219976,196963,
219999,196964,
220012,196980,
220027,196981,
220042,196986,
220031,196981,
220064,196990,
220066,196989,
220082,196993,
220110,197000,
220130,197002,
220158,197018,
220171,197015,
220140,197006,
220130,196964,
220072,196932,
219957,196851,
219828,196781,
219669,196716,
219530,196643,
219361,196564,
219213,196509,
219158,196503,
219127,196498,
219122,196503,
219113,196515,
219136,196517,
219189,196542,
219239,196565,
219300,196608,
219358,196623,
219401,196639,
219443,196628,
219464,196650,
219469,196635,
219469,196622,
219454,196597,
219453,196578,
219459,196573,
219474,196587,
219525,196595,
219526,196613,
219545,196615,
219578,196642,
219578,196663,
219618,196657,
219640,196675,
219611,196689,
219593,196706,
219624,196717,
219608,196709,
219615,196719,
219618,196737,
219631,196734,
219638,196757,
219661,196777,
219663,196804,
219728,196826,
219765,196886,
219816,196910,
219890,196940,
219931,196986,
219973,197001,
220000,197030,
220047,197044,
220081,197066,
220105,197079,
220086,197065,
220101,197081,
220129,197087,
COM4 disconnected!
