
216435,210759,
216532,210845,
216522,210826,
216623,210902,
216631,210867,
216729,210921,
216739,210914,
216837,210961,
216823,210957,
216903,211012,
216896,210973,
216966,211040,
216950,211001,
217018,211051,
217008,211031,
217095,211084,
217091,211051,
217159,211110,
217141,211083,
217226,211146,
217226,211118,
217299,211196,
217318,211150,
217401,211219,
217404,211186,
217473,211255,
217467,211197,
217461,211218,
217304,211113,
217161,211062,
216878,210903,
216672,210837,
216360,210670,
216174,210638,
215934,210530,
215836,210506,
215693,210437,
215671,210459,
215646,210404,
215653,210464,
215642,210437,
215645,210477,
215662,210444,
215662,210496,
215676,210444,
215664,210476,
215634,210429,
215570,210443,
215545,210390,
215505,210407,
215505,210364,
215503,210420,
215515,210371,
215530,210423,
215546,210368,
215541,210404,
215545,210347,
215542,210376,
215521,210343,
215493,210363,
215471,210309,
215471,210359,
215480,210317,
215468,210359,
215504,210327,
215537,210376,
215566,210377,
215653,210418,
215684,210419,
215745,210473,
215789,210455,
215831,210507,
215860,210496,
215896,210536,
215939,210524,
215973,210555,
216024,210558,
216092,210600,
216112,210594,
216171,210638,
216200,210635,
216216,210678,
216242,210639,
216268,210667,
216270,210648,
216289,210669,
216333,210643,
216366,210685,
216382,210662,
216399,210709,
216416,210677,
216460,210718,
216502,210704,
216532,210753,
216576,210729,
216582,210765,
216640,210772,
216699,210800,
216746,210820,
216762,210852,
216815,210834,
216870,210882,
216894,210874,
216955,210931,
216990,210910,
217044,210966,
217087,210928,
217144,211013,
217176,210992,
217196,211020,
217236,211016,
217267,211044,
217307,211040,
217353,211093,
217375,211074,
217424,211110,
217467,211110,
217515,211152,
217547,211158,
217559,211167,
217589,211160,
217644,211200,
217666,211195,
217719,211246,
217768,211235,
217811,211280,
217861,211279,
217883,211321,
217946,211323,
217970,211373,
218027,211354,
218082,211410,
218128,211392,
218137,211436,
218162,211383,
218094,211361,
217943,211265,
217750,211192,
217532,211057,
217319,210987,
217106,210871,
216949,210848,
216785,210733,
216664,210716,
216606,210670,
216544,210692,
216542,210665,
216551,210696,
216545,210676,
216571,210713,
216547,210684,
216555,210725,
216548,210680,
216515,210692,
216487,210664,
216472,210672,
216451,210636,
216455,210656,
216449,210646,
216479,210677,
216483,210666,
216501,210697,
216516,210678,
216519,210689,
216525,210669,
216536,210699,
216522,210665,
216525,210678,
216513,210645,
216509,210697,
216517,210658,
216529,210692,
216551,210677,
216570,210705,
216610,210685,
216613,210721,
216640,210699,
216665,210739,
216688,210702,
216701,210742,
216761,210743,
216791,210784,
216823,210778,
216853,210798,
216865,210791,
216909,210831,
216929,210811,
216996,210858,
217020,210829,
217075,210883,
217091,210877,
217118,210907,
217147,210899,
217157,210917,
217195,210906,
217242,210940,
217275,210937,
217316,210982,
217365,210991,
217399,211003,
217384,210989,
217437,211035,
217458,211019,
217498,211047,
217534,211062,
217592,211099,
217644,211108,
217698,211139,
217739,211143,
217743,211156,
217771,211150,
217802,211175,
217811,211150,
217874,211203,
217910,211219,
217970,211250,
217996,211248,
218028,211274,
218035,211258,
218106,211292,
218123,211288,
218151,211319,
218196,211329,
218244,211353,
218248,211336,
218278,211367,
218313,211357,
218335,211391,
218360,211381,
218427,211419,
218447,211420,
218487,211443,
218518,211443,
218525,211466,
218570,211456,
218585,211494,
218655,211505,
218696,211538,
218739,211538,
218807,211575,
218811,211562,
218819,211570,
218763,211527,
218627,211460,
218452,211363,
218256,211287,
218072,211179,
217903,211123,
217753,211051,
217639,211018,
217536,210982,
217446,210944,
217407,210940,
217374,210943,
217414,210950,
217433,210973,
217450,210973,
217467,211007,
217460,210999,
217442,210997,
217442,210969,
217397,210961,
217372,210941,
217336,210924,
217342,210926,
217332,210925,
217357,210933,
217393,210959,
217394,210959,
217414,210953,
217436,210967,
217409,210947,
217384,210942,
217363,210916,
217348,210910,
217351,210905,
217354,210912,
217366,210932,
217363,210946,
217375,210905,
217391,210931,
217400,210924,
217448,210931,
217468,210956,
217502,210979,
217527,210985,
217579,211021,
217607,211015,
217663,211043,
217685,211062,
217732,211079,
217738,211077,
217774,211097,
217806,211099,
217838,211110,
217863,211123,
217923,211149,
217939,211163,
217996,211195,
218016,211187,
218018,211190,
218040,211203,
218073,211221,
218122,211217,
218138,211246,
218187,211262,
218220,211289,
218257,211293,
218317,211334,
218341,211328,
218356,211362,
218423,211351,
218451,211400,
218510,211395,
218551,211435,
218590,211428,
218612,211458,
218664,211456,
218707,211512,
218746,211502,
218760,211532,
218820,211548,
218868,211573,
218886,211578,
218927,211596,
218991,211612,
219013,211654,
219040,211640,
219067,211668,
219076,211659,
219100,211689,
219144,211686,
219185,211707,
219208,211708,
219250,211742,
219280,211716,
219310,211749,
219339,211772,
219384,211782,
219422,211786,
219469,211833,
219508,211833,
219535,211843,
219589,211857,
219597,211882,
219565,211839,
219490,211809,
219333,211699,
219142,211647,
218986,211544,
218802,211474,
218632,211410,
218481,211373,
218399,211330,
218338,211329,
218300,211297,
218283,211331,
218294,211306,
218306,211327,
218320,211326,
218316,211340,
218311,211342,
218315,211338,
218284,211323,
218294,211323,
218257,211314,
218263,211312,
218249,211289,
218242,211311,
218277,211297,
218301,211343,
218308,211327,
218316,211349,
218307,211328,
218290,211323,
218278,211300,
218258,211319,
218249,211286,
218235,211308,
218260,211288,
218262,211313,
218248,211280,
218262,211311,
218272,211279,
218288,211324,
218304,211299,
218316,211335,
218342,211310,
218366,211332,
218412,211351,
218445,211368,
218476,211375,
218516,211419,
218522,211408,
218568,211439,
218595,211420,
218606,211452,
218639,211434,
218652,211464,
218696,211448,
218729,211496,
218744,211475,
218779,211505,
218813,211509,
218829,211525,
218823,211495,
218856,211550,
218888,211526,
218921,211572,
218950,211544,
218979,211588,
219009,211576,
219034,211619,
219065,211596,
219077,211617,
219111,211633,
219132,211665,
219173,211642,
219200,211673,
219222,211680,
219262,211712,
219318,211713,
219347,211740,
219376,211731,
219405,211783,
219445,211759,
219469,211804,
219516,211794,
219551,211839,
219566,211813,
219615,211878,
219650,211870,
219664,211899,
219710,211883,
219731,211915,
219743,211903,
219761,211925,
219756,211898,
219787,211948,
219801,211919,
219808,211940,
219841,211938,
219854,211971,
219880,211945,
219916,212004,
219977,211974,
219982,212026,
220025,212009,
220062,212058,
220093,212044,
220125,212078,
220148,212074,
220150,212090,
220074,212020,
219992,211985,
219818,211864,
219617,211806,
219422,211679,
219228,211632,
219063,211525,
218900,211512,
218814,211444,
218735,211445,
218694,211419,
218642,211438,
218634,211411,
218643,211442,
218658,211419,
218669,211450,
218664,211420,
218652,211454,
218657,211429,
218614,211436,
218617,211402,
218589,211423,
218548,211396,
218519,211391,
218510,211369,
218517,211382,
218518,211383,
218516,211366,
218519,211363,
218508,211359,
218510,211357,
218483,211361,
218485,211341,
218479,211323,
218449,211329,
218451,211336,
218479,211348,
218481,211348,
218485,211351,
218511,211352,
218515,211362,
218533,211371,
218567,211387,
218603,211400,
218633,211418,
218650,211417,
218689,211432,
218691,211427,
218713,211458,
218758,211473,
218795,211471,
218804,211490,
218828,211490,
218858,211503,
218891,211524,
218899,211515,
218909,211517,
218917,211516,
218949,211544,
218959,211544,
218994,211559,
219007,211560,
219052,211570,
219073,211585,
219101,211598,
219124,211602,
219137,211616,
219171,211624,
219186,211637,
219231,211649,
219253,211650,
219289,211675,
219335,211688,
219342,211709,
219401,211716,
219407,211723,
219461,211749,
219465,211755,
219515,211766,
219537,211779,
219567,211800,
219597,211803,
219621,211828,
219655,211838,
219686,211837,
219714,211859,
219726,211861,
219747,211862,
219782,211892,
219820,211902,
219854,211909,
219866,211923,
219900,211939,
219944,211949,
219962,211955,
219991,211976,
220024,212005,
220075,212006,
220078,212031,
220145,212050,
220188,212044,
220208,212070,
220201,212076,
220158,212052,
220052,211971,
219890,211880,
219689,211796,
219498,211699,
219324,211617,
219141,211568,
218985,211500,
218878,211445,
218803,211434,
218758,211420,
218753,211432,
218743,211442,
218744,211448,
218766,211460,
218788,211457,
218788,211467,
218780,211456,
218776,211464,
218772,211450,
218741,211444,
218729,211425,
218715,211406,
218738,211414,
218704,211430,
218740,211427,
218748,211446,
218748,211425,
218751,211422,
218726,211412,
218714,211410,
218723,211405,
218688,211392,
218706,211398,
218698,211399,
218701,211390,
218691,211394,
218720,211396,
218724,211421,
218767,211402,
218774,211397,
218785,211415,
218794,211417,
218835,211455,
218834,211447,
218874,211441,
218874,211461,
218922,211457,
218926,211472,
218965,211499,
218993,211514,
219012,211522,
219033,211520,
219071,211546,
219068,211530,
219096,211542,
219091,211560,
219128,211564,
219165,211571,
219185,211590,
219204,211596,
219228,211612,
219242,211604,
219290,211621,
219306,211629,
219340,211647,
219351,211663,
219400,211675,
219402,211678,
219431,211680,
219461,211705,
219513,211708,
219528,211741,
219577,211759,
219623,211771,
219640,211768,
219675,211771,
219711,211800,
219755,211825,
219764,211844,
219781,211827,
219813,211842,
219853,211854,
219875,211876,
219910,211896,
219941,211895,
219964,211913,
219976,211909,
219994,211934,
220038,211930,
220065,211950,
220127,211964,
220156,211994,
220174,212006,
220224,212029,
220225,212031,
220238,212026,
220233,212011,
220157,211950,
220002,211886,
219826,211795,
219648,211699,
219450,211618,
219281,211556,
219131,211502,
219032,211475,
218949,211433,
218897,211441,
218888,211450,
218886,211458,
218895,211465,
218901,211469,
218914,211468,
218937,211478,
218936,211490,
218923,211479,
218936,211479,
218925,211456,
218903,211466,
218886,211456,
218861,211443,
218864,211440,
218875,211444,
218887,211449,
218899,211454,
218920,211456,
218912,211446,
218905,211455,
218901,211456,
218882,211429,
218846,211421,
218845,211407,
218836,211396,
218830,211404,
218859,211425,
218880,211428,
218908,211439,
218923,211439,
218934,211464,
218961,211467,
218996,211472,
219019,211480,
219028,211493,
219062,211500,
219089,211515,
219122,211525,
219144,211533,
219145,211555,
219178,211557,
219210,211558,
219235,211591,
219249,211580,
219265,211592,
219282,211595,
219311,211599,
219320,211610,
219339,211615,
219371,211626,
219398,211631,
219410,211635,
219424,211641,
219464,211664,
219484,211660,
219496,211665,
219530,211677,
219570,211689,
219563,211696,
219584,211708,
219621,211718,
219651,211731,
219693,211749,
219724,211777,
219739,211778,
219780,211797,
219793,211808,
219830,211819,
219858,211821,
219890,211851,
219926,211850,
219964,211887,
219993,211898,
220026,211911,
220055,211920,
220103,211926,
220082,211941,
220132,211952,
220154,211969,
220188,211973,
220216,211984,
220277,212018,
220291,212032,
220326,212034,
220342,212041,
220390,212051,
220412,212078,
220446,212099,
220468,212103,
220483,212103,
220519,212117,
220508,212120,
220455,212072,
220328,212007,
220149,211914,
219950,211802,
219737,211721,
219508,211619,
219323,211545,
219176,211491,
219066,211460,
219005,211446,
218973,211446,
218985,211444,
218992,211445,
218985,211466,
219000,211469,
219006,211473,
218991,211458,
218995,211463,
218995,211458,
218973,211453,
218940,211417,
218934,211412,
218898,211408,
218888,211399,
218879,211388,
218861,211394,
218863,211391,
218871,211365,
218871,211386,
218863,211379,
218871,211373,
218876,211383,
218844,211364,
218846,211358,
218825,211363,
218841,211354,
218839,211350,
218843,211347,
218870,211367,
218879,211370,
218878,211364,
218877,211383,
218907,211395,
218943,211394,
218947,211408,
219002,211420,
219009,211422,
219039,211438,
219049,211454,
219076,211456,
219091,211464,
219117,211447,
219122,211464,
219159,211468,
219171,211476,
219200,211495,
219211,211513,
219238,211518,
219252,211490,
219260,211528,
219279,211524,
219301,211538,
219327,211544,
219348,211545,
219386,211567,
219406,211579,
219434,211586,
219442,211598,
219456,211602,
219469,211613,
219474,211616,
219514,211622,
219540,211624,
219617,211651,
219613,211667,
219660,211690,
219677,211693,
219705,211709,
219701,211700,
219735,211712,
219768,211735,
219780,211741,
219803,211752,
219860,211741,
219895,211788,
219915,211784,
219930,211808,
219958,211812,
220000,211838,
220023,211845,
220040,211854,
220074,211870,
220086,211873,
220121,211870,
220136,211874,
220186,211891,
220173,211895,
220210,211905,
220222,211908,
220244,211919,
220285,211929,
220293,211961,
220327,211968,
220385,211977,
220402,211998,
220439,212005,
220463,212015,
220462,212024,
220455,211992,
220354,211938,
220188,211850,
219990,211750,
219758,211636,
219526,211553,
219300,211446,
219135,211391,
218988,211333,
218894,211310,
218832,211291,
218793,211298,
218790,211273,
218792,211292,
218786,211305,
218784,211302,
218788,211307,
218794,211289,
218808,211306,
218776,211277,
218762,211266,
218726,211259,
218681,211240,
218665,211236,
218674,211238,
218667,211238,
218688,211251,
218710,211249,
218711,211244,
218689,211241,
218666,211230,
218640,211222,
218613,211207,
218609,211185,
218591,211174,
218578,211188,
218587,211179,
218590,211184,
218606,211189,
218605,211193,
218622,211212,
218615,211227,
218646,211235,
218669,211230,
218693,211241,
218709,211259,
218740,211257,
218759,211274,
218783,211290,
218821,211302,
218854,211300,
218862,211303,
218881,211309,
218903,211321,
218941,211351,
218953,211346,
218987,211372,
218997,211369,
219021,211398,
219012,211391,
219059,211406,
219082,211423,
219090,211444,
219139,211418,
219149,211446,
219175,211443,
219194,211476,
219202,211471,
219240,211503,
219267,211487,
219304,211530,
219321,211522,
219366,211539,
219386,211552,
219426,211565,
219445,211562,
219454,211584,
219484,211606,
219510,211593,
219543,211614,
219578,211613,
219606,211657,
219636,211648,
219674,211681,
219692,211681,
219718,211700,
219752,211701,
219781,211717,
219796,211718,
219817,211743,
219841,211734,
219880,211749,
219889,211757,
219947,211781,
219969,211789,
219993,211796,
220040,211829,
220066,211832,
220093,211849,
220115,211855,
220111,211844,
220048,211805,
219905,211717,
219707,211628,
219463,211532,
219227,211408,
218999,211324,
218812,211251,
218652,211168,
218544,211140,
218468,211135,
218458,211134,
218449,211115,
218458,211151,
218463,211145,
218464,211131,
218469,211145,
218481,211167,
218476,211148,
218486,211134,
218454,211146,
218420,211110,
218403,211103,
218412,211103,
218377,211102,
218388,211090,
218398,211110,
218394,211093,
218383,211088,
218351,211087,
218359,211083,
218334,211071,
218297,211064,
218276,211051,
218285,211052,
218273,211043,
218263,211047,
218275,211054,
218295,211033,
218285,211057,
218298,211065,
218330,211088,
218340,211097,
218363,211087,
218379,211101,
218440,211120,
218459,211151,
218496,211165,
218535,211186,
218560,211202,
218590,211201,
218624,211209,
218626,211209,
218633,211209,
218658,211220,
218702,211238,
218715,211250,
218736,211257,
218768,211251,
218794,211287,
218803,211300,
218798,211270,
218829,211283,
218860,211321,
218876,211304,
218914,211336,
218931,211348,
218952,211359,
218974,211361,
218993,211376,
219030,211399,
219051,211404,
219105,211420,
219130,211439,
219160,211469,
219197,211457,
219217,211486,
219241,211500,
219276,211499,
219307,211501,
219346,211542,
219397,211552,
219424,211553,
219447,211589,
219496,211591,
219517,211606,
219556,211629,
219582,211630,
219610,211635,
219629,211649,
219655,211663,
219660,211681,
219702,211696,
219722,211685,
219752,211696,
219797,211728,
219850,211753,
219865,211766,
219877,211776,
219914,211802,
219936,211792,
220007,211834,
220024,211834,
220060,211862,
220079,211860,
220077,211832,
219997,211790,
219831,211707,
219591,211581,
219334,211466,
219049,211329,
218777,211226,
218539,211125,
218335,211044,
218191,211003,
218072,210963,
218022,210940,
217969,210927,
217953,210933,
217943,210932,
217947,210916,
217928,210924,
217914,210919,
217895,210907,
217872,210910,
217843,210875,
217813,210883,
217784,210857,
217733,210842,
217708,210833,
217701,210835,
217694,210828,
217671,210820,
217683,210808,
217674,210797,
217664,210794,
217623,210792,
217598,210765,
217566,210769,
217537,210741,
217519,210738,
217519,210730,
217499,210728,
217532,210733,
217498,210733,
217535,210725,
217545,210742,
217547,210747,
217565,210750,
217592,210758,
217626,210785,
217648,210790,
217661,210807,
217703,210796,
217734,210841,
217777,210853,
217807,210852,
217838,210871,
217860,210880,
217884,210901,
217888,210897,
217928,210906,
217948,210917,
217983,210947,
217999,210943,
218030,210956,
218049,210958,
218095,210974,
218072,210978,
218108,210989,
218150,211002,
218171,211010,
218187,211028,
218221,211038,
218247,211057,
218303,211076,
218296,211084,
218361,211102,
218387,211115,
218403,211125,
218431,211122,
218460,211136,
218481,211129,
218533,211177,
218572,211180,
218602,211201,
218654,211219,
218692,211245,
218703,211246,
218742,211242,
218769,211279,
218795,211271,
218815,211288,
218855,211319,
218908,211331,
218944,211343,
218965,211356,
218995,211362,
219032,211382,
219054,211404,
219097,211427,
219125,211421,
219153,211428,
219189,211461,
219223,211486,
219280,211500,
219314,211495,
219344,211520,
219380,211527,
219359,211507,
219253,211454,
219079,211343,
218841,211226,
218582,211107,
218334,211013,
218081,210895,
217877,210796,
217704,210743,
217593,210711,
217529,210697,
217481,210701,
217476,210692,
217493,210684,
217499,210712,
217536,210727,
217540,210729,
217553,210733,
217558,210727,
217536,210724,
217519,210707,
217514,210709,
217487,210697,
217460,210683,
217462,210699,
217484,210705,
217486,210714,
217500,210716,
217519,210705,
217488,210710,
217497,210687,
217470,210701,
217477,210692,
217455,210681,
217433,210685,
217444,210662,
217462,210663,
217457,210674,
217470,210696,
217490,210702,
217491,210687,
217543,210714,
217562,210724,
217598,210756,
217626,210768,
217647,210786,
217708,210806,
217707,210814,
217749,210821,
217784,210828,
217812,210841,
217835,210844,
217879,210852,
217904,210878,
217933,210880,
217968,210901,
217979,210903,
218006,210921,
218046,210944,
218084,210963,
218139,210972,
218137,210990,
218188,211007,
218211,211022,
218241,211021,
218248,211021,
218283,211035,
218322,211058,
218361,211074,
218392,211089,
218431,211123,
218462,211135,
218508,211157,
218542,211145,
218557,211176,
218582,211172,
218632,211212,
218669,211219,
218733,211231,
218734,211243,
218810,211260,
218851,211304,
218887,211312,
218921,211323,
218927,211338,
218958,211335,
218982,211346,
218997,211357,
219018,211371,
219084,211388,
219131,211404,
219168,211419,
219193,211416,
219204,211410,
219226,211449,
219267,211459,
219321,211481,
219346,211497,
219370,211521,
219443,211532,
219480,211551,
219452,211515,
219362,211443,
219194,211385,
218990,211266,
218760,211162,
218514,211057,
218290,210970,
218096,210893,
217953,210853,
217865,210805,
217816,210788,
217768,210810,
217791,210808,
217804,210818,
217810,210818,
217816,210831,
217835,210822,
217870,210829,
217849,210841,
217841,210834,
217839,210829,
217817,210835,
217836,210817,
217788,210809,
217780,210804,
217787,210794,
217790,210805,
217804,210814,
217816,210811,
217808,210821,
217818,210807,
217778,210793,
217761,210779,
217726,210762,
217710,210750,
217734,210769,
217742,210767,
217774,210786,
217781,210790,
217772,210788,
217783,210796,
217812,210814,
217834,210822,
217867,210832,
217896,210853,
217928,210847,
217953,210867,
217987,210868,
218017,210888,
218025,210882,
218050,210900,
218080,210907,
218104,210928,
218148,210951,
218179,210963,
218223,210983,
218256,211002,
218269,211014,
218306,211025,
218317,211023,
218357,211039,
218358,211044,
218397,211057,
218444,211071,
218474,211108,
218483,211106,
218528,211110,
218555,211139,
218598,211143,
218635,211173,
218660,211173,
218682,211190,
218721,211213,
218770,211237,
218795,211256,
218842,211259,
218877,211286,
218922,211301,
218964,211322,
218989,211322,
219028,211353,
219093,211367,
219095,211359,
219158,211398,
219177,211406,
219222,211439,
219258,211441,
219279,211454,
219315,211467,
219337,211473,
219368,211482,
219396,211494,
219422,211501,
219448,211515,
219484,211521,
219528,211550,
219575,211573,
219616,211585,
219625,211595,
219686,211618,
219699,211618,
219741,211638,
219747,211640,
219713,211607,
219617,211547,
219434,211472,
219240,211354,
218982,211246,
218764,211165,
218563,211055,
218372,210997,
218248,210938,
218193,210917,
218146,210907,
218148,210940,
218136,210933,
218113,210935,
218139,210952,
218131,210930,
218123,210929,
218126,210924,
218125,210922,
218091,210925,
218073,210890,
218046,210885,
218041,210897,
218000,210874,
218002,210865,
218004,210861,
217988,210866,
217988,210859,
217985,210857,
217992,210849,
217987,210873,
217984,210860,
217980,210859,
217971,210856,
217971,210848,
217981,210846,
217966,210847,
217985,210859,
217989,210866,
218031,210878,
218051,210892,
218072,210889,
218100,210909,
218132,210920,
218150,210939,
218187,210969,
218245,210980,
218279,210992,
218299,210980,
218312,211014,
218330,211007,
218374,211020,
218389,211040,
218436,211060,
218458,211073,
218521,211089,
218563,211127,
218583,211126,
218625,211133,
218638,211152,
218640,211170,
218674,211165,
218710,211192,
218750,211203,
218772,211235,
218823,211237,
218865,211268,
218872,211262,
218921,211289,
218936,211301,
218976,211299,
219002,211317,
219061,211352,
219074,211358,
219106,211368,
219155,211376,
219161,211382,
219212,211399,
219240,211416,
219291,211418,
219333,211453,
219358,211465,
219392,211490,
219414,211494,
219437,211494,
219482,211512,
219501,211510,
219539,211529,
219547,211543,
219573,211559,
219656,211572,
219659,211589,
219719,211609,
219758,211635,
219837,211669,
219869,211690,
219909,211698,
219918,211706,
219893,211704,
219847,211639,
219726,211570,
219544,211512,
219374,211427,
219202,211384,
219052,211301,
218907,211232,
218786,211193,
218670,211155,
218604,211150,
218583,211134,
218604,211145,
218603,211161,
218604,211163,
218628,211155,
218605,211162,
218591,211153,
218569,211143,
218533,211121,
218552,211110,
218528,211114,
218505,211092,
218498,211096,
218475,211085,
218469,211095,
218489,211087,
218506,211089,
218509,211098,
218498,211077,
218515,211094,
218512,211095,
218520,211104,
218493,211095,
218482,211063,
218452,211066,
218480,211055,
218467,211066,
218479,211066,
218492,211090,
218558,211106,
218573,211115,
218591,211139,
218598,211142,
218642,211141,
218649,211168,
218677,211159,
218692,211164,
218704,211172,
218727,211192,
218753,211202,
218788,211213,
218811,211211,
218845,211232,
218857,211247,
218894,211246,
218898,211264,
218911,211259,
218936,211294,
218966,211291,
218990,211308,
218999,211325,
219043,211324,
219062,211323,
219101,211345,
219128,211368,
219170,211381,
219183,211391,
219194,211415,
219205,211404,
219256,211405,
219291,211433,
219323,211447,
219341,211459,
219354,211444,
219384,211445,
219386,211479,
219429,211476,
219439,211472,
219453,211486,
219473,211476,
219489,211497,
219503,211507,
219546,211516,
219589,211540,
219634,211549,
219672,211576,
219702,211578,
219728,211581,
219738,211594,
219750,211586,
219773,211597,
219801,211604,
219772,211581,
219728,211576,
219635,211484,
219458,211399,
219257,211317,
219059,211251,
218876,211160,
218718,211103,
218582,211051,
218473,211015,
218450,211000,
218439,211000,
218432,211012,
218420,211018,
218438,210995,
218402,210985,
218390,210990,
218393,210994,
218376,210966,
218352,210970,
218347,210953,
218324,210940,
218309,210912,
218302,210914,
218297,210933,
218314,210934,
218300,210913,
218303,210921,
218333,210917,
218309,210908,
218287,210896,
218250,210879,
218205,210877,
218210,210871,
218216,210845,
218210,210851,
218216,210844,
218255,210870,
218260,210862,
218259,210875,
218260,210868,
218271,210866,
218303,210882,
218332,210893,
218360,210909,
218390,210919,
218386,210907,
218415,210925,
218428,210933,
218451,210934,
218482,210942,
218480,210952,
218523,210954,
218541,210973,
218548,210968,
218569,210980,
218590,210987,
218626,211000,
218642,211002,
218650,211009,
218686,211017,
218696,211016,
218715,211044,
218750,211052,
218765,211039,
218792,211075,
218816,211092,
218831,211085,
218864,211119,
218903,211097,
218924,211138,
218939,211118,
218985,211134,
219023,211167,
219047,211175,
219062,211187,
219075,211199,
219106,211211,
219143,211226,
219172,211231,
219209,211212,
219221,211234,
219236,211251,
219277,211251,
219297,211298,
219341,211299,
219373,211289,
219392,211311,
219408,211320,
219453,211345,
219459,211346,
219494,211337,
219462,211322,
219383,211263,
219249,211202,
219072,211091,
218868,211026,
218675,210943,
218515,210876,
218343,210819,
218222,210752,
218146,210743,
218100,210729,
218067,210731,
218073,210711,
218072,210736,
218068,210730,
218070,210719,
218071,210725,
218060,210707,
218011,210701,
217973,210658,
217944,210663,
217915,210649,
217879,210618,
217874,210615,
217841,210606,
217860,210601,
217876,210627,
217897,210630,
217914,210641,
217907,210637,
217909,210620,
217897,210627,
217864,210609,
217852,210585,
217851,210602,
217852,210592,
217854,210597,
217877,210604,
217897,210603,
217889,210605,
217902,210618,
217911,210604,
217935,210621,
217946,210625,
217997,210636,
218015,210649,
218028,210664,
218056,210660,
218062,210662,
218083,210677,
218117,210688,
218134,210686,
218138,210679,
218173,210692,
218228,210711,
218220,210735,
218263,210734,
218277,210743,
218306,210744,
218322,210753,
218332,210747,
218351,210759,
218369,210775,
218405,210779,
218415,210790,
218467,210804,
218467,210810,
218496,210829,
218509,210834,
218551,210840,
218582,210855,
218613,210850,
218638,210874,
218667,210890,
218717,210911,
218731,210912,
218728,210929,
218785,210925,
218813,210942,
218863,210961,
218891,210963,
218908,210980,
218931,210989,
218936,210964,
218972,210991,
218999,211008,
219021,211028,
219034,211019,
219059,211026,
219091,211040,
219125,211050,
219171,211072,
219196,211094,
219209,211080,
219243,211111,
219289,211121,
219320,211133,
219370,211157,
219390,211144,
219401,211159,
219383,211149,
219310,211115,
219188,211041,
219057,210957,
218852,210869,
218676,210790,
218497,210722,
218339,210665,
218231,210617,
218143,210562,
218086,210554,
218056,210560,
218061,210558,
218052,210560,
218075,210565,
218051,210575,
218030,210545,
218026,210541,
217980,210520,
217950,210504,
217893,210471,
217851,210458,
217850,210472,
217853,210468,
217847,210440,
217835,210458,
217847,210442,
217863,210445,
217856,210446,
217856,210427,
217841,210450,
217847,210443,
217832,210423,
217817,210420,
217823,210411,
217830,210413,
217832,210430,
217836,210428,
217855,210434,
217870,210441,
217900,210427,
217873,210435,
217907,210435,
217927,210447,
217933,210459,
217965,210466,
218001,210472,
218008,210481,
218038,210501,
218074,210503,
218106,210524,
218123,210534,
218150,210532,
218151,210538,
218189,210550,
218202,210559,
218231,210566,
218256,210563,
218271,210581,
218317,210600,
218332,210618,
218363,210632,
218376,210618,
218405,210627,
218423,210644,
218441,210640,
218487,210664,
218534,210689,
218553,210679,
218572,210720,
218578,210712,
218583,210710,
218614,210727,
218657,210742,
218713,210759,
218747,210792,
218814,210819,
218837,210817,
218886,210826,
218891,210840,
218890,210843,
218912,210838,
218902,210851,
218959,210865,
218992,210895,
219029,210892,
219055,210898,
219093,210913,
219095,210920,
219138,210937,
219196,210962,
219232,210985,
219266,210987,
219327,211033,
219344,211039,
219377,211056,
219412,211072,
219440,211068,
219418,211058,
219347,211008,
219236,210957,
219104,210892,
218956,210818,
218811,210742,
218668,210709,
218593,210651,
218523,210638,
218494,210621,
218482,210634,
218481,210643,
218493,210647,
218499,210645,
218512,210661,
218525,210658,
218502,210644,
218463,210610,
218454,210612,
218430,210587,
218395,210585,
218390,210579,
218404,210575,
218416,210582,
218414,210580,
218408,210578,
218419,210596,
218426,210570,
218413,210568,
218422,210555,
218424,210554,
218391,210529,
218382,210535,
218370,210517,
218373,210510,
218380,210538,
218372,210512,
218384,210521,
218388,210528,
218422,210528,
218426,210528,
218454,210539,
218450,210541,
218467,210527,
218489,210544,
218515,210573,
218534,210570,
218573,210580,
218581,210598,
218589,210574,
218621,210599,
218640,210583,
218654,210599,
218664,210606,
218674,210612,
218676,210620,
218703,210609,
218719,210622,
218744,210629,
218749,210639,
218765,210631,
218796,210657,
218837,210652,
218840,210658,
218874,210684,
218909,210701,
218941,210696,
218972,210724,
219007,210725,
219010,210720,
219034,210733,
219065,210752,
219085,210764,
219114,210793,
219125,210780,
219164,210785,
219215,210832,
219223,210812,
219241,210817,
219248,210836,
219269,210833,
219303,210857,
219345,210870,
219350,210880,
219393,210868,
219387,210877,
219444,210898,
219471,210905,
219500,210932,
219530,210944,
219538,210939,
219592,210950,
219620,210968,
219661,210977,
219701,210996,
219740,211015,
219752,211029,
219771,211039,
219769,211019,
219692,210971,
219569,210895,
219443,210831,
219248,210739,
219100,210684,
218958,210617,
218871,210574,
218778,210546,
218702,210508,
218683,210509,
218685,210509,
218680,210513,
218686,210525,
218690,210519,
218680,210519,
218664,210508,
218648,210488,
218635,210503,
218627,210492,
218583,210467,
218561,210450,
218527,210437,
218511,210437,
218508,210451,
218504,210425,
218520,210437,
218531,210443,
218523,210446,
218512,210430,
218499,210432,
218509,210430,
218491,210414,
218455,210404,
218487,210416,
218443,210387,
218420,210372,
218413,210373,
218418,210375,
218427,210367,
218447,210379,
218452,210358,
218472,210386,
218514,210396,
218523,210408,
218554,210425,
218569,210436,
218588,210413,
218609,210428,
218619,210442,
218627,210450,
218631,210442,
218658,210450,
218672,210466,
218706,210472,
218744,210498,
218749,210489,
218779,210498,
218783,210525,
218807,210516,
218835,210531,
218865,210548,
218878,210565,
218913,210558,
218932,210578,
218960,210581,
218965,210595,
219009,210610,
219023,210615,
219063,210625,
219090,210644,
219127,210656,
219154,210644,
219154,210663,
219177,210677,
219205,210702,
219227,210702,
219244,210718,
219255,210704,
219308,210737,
219343,210736,
219369,210760,
219400,210767,
219432,210777,
219436,210783,
219465,210806,
219492,210804,
219509,210812,
219500,210806,
219555,210850,
219568,210833,
219614,210843,
219642,210856,
219672,210910,
219714,210889,
219727,210898,
219770,210922,
219784,210925,
219818,210943,
219853,210966,
219851,210938,
219873,210967,
219874,210962,
219795,210909,
219683,210834,
219537,210753,
219359,210680,
219205,210622,
219051,210527,
218911,210472,
218836,210467,
218799,210445,
218771,210440,
218790,210473,
218771,210453,
218775,210463,
218785,210460,
218760,210458,
218741,210442,
218736,210446,
218693,210418,
218668,210405,
218645,210389,
218625,210392,
218580,210342,
218557,210356,
218527,210340,
218526,210353,
218539,210347,
218555,210377,
218573,210358,
218561,210365,
218563,210352,
218535,210339,
218509,210322,
218489,210331,
218495,210296,
218496,210327,
218506,210310,
218509,210317,
218510,210307,
218529,210324,
218529,210313,
218532,210331,
218544,210296,
218554,210335,
218566,210313,
218590,210357,
218630,210341,
218660,210371,
218667,210355,
218671,210380,
218673,210359,
218693,210387,
218727,210371,
218728,210410,
218755,210392,
218781,210427,
218815,210401,
218847,210473,
218868,210433,
218887,210471,
218892,210469,
218904,210475,
218912,210455,
218937,210495,
218977,210472,
219004,210523,
219030,210510,
219074,210524,
219115,210554,
219130,210600,
219187,210579,
219194,210616,
219241,210606,
219262,210631,
219288,210625,
219313,210662,
219355,210663,
219411,210687,
219433,210693,
219481,210742,
219488,210722,
219521,210767,
219569,210767,
219586,210788,
219623,210803,
219674,210838,
219688,210808,
219720,210853,
219736,210837,
219771,210872,
219796,210850,
219820,210884,
219853,210891,
219913,210909,
219929,210926,
219975,210956,
220015,210941,
220045,210997,
220072,210987,
220092,211011,
220136,211013,
220174,211043,
220203,211033,
220188,211046,
220138,210993,
219983,210919,
219824,210839,
219679,210763,
219484,210668,
219346,210629,
219209,210544,
219101,210532,
219047,210503,
219060,210524,
219041,210501,
219050,210528,
219059,210531,
219031,210541,
219024,210517,
219023,210537,
219039,210514,
219040,210544,
219046,210561,
219042,210549,
219022,210534,
219003,210535,
218953,210516,
218971,210519,
218968,210523,
218970,210521,
218992,210535,
219003,210535,
218995,210533,
218981,210525,
218960,210510,
218917,210475,
218906,210480,
218902,210465,
218911,210475,
218902,210490,
218911,210499,
218925,210512,
218924,210488,
218914,210499,
218959,210509,
218952,210508,
218984,210531,
218999,210546,
219017,210525,
219048,210553,
219068,210544,
219084,210562,
219095,210571,
219113,210581,
219132,210577,
219150,210598,
219198,210608,
219209,210616,
219220,210622,
219224,210618,
219240,210625,
219255,210627,
219293,210647,
219280,210654,
219336,210661,
219348,210674,
219359,210678,
219359,210664,
219388,210679,
219394,210679,
219408,210676,
219439,210716,
219448,210703,
219481,210709,
219509,210742,
219553,210744,
219569,210755,
219611,210783,
219631,210786,
219657,210794,
219686,210814,
219714,210842,
219730,210818,
219739,210848,
219785,210865,
219799,210870,
219836,210855,
219848,210873,
219868,210856,
219902,210910,
219938,210894,
219968,210941,
220016,210929,
220060,210962,
220080,210953,
220108,211005,
220135,210972,
220127,210991,
220069,210927,
219963,210888,
219812,210777,
219634,210719,
219438,210612,
219275,210567,
219114,210464,
219020,210464,
218919,210405,
218848,210402,
218821,210360,
218802,210399,
218806,210379,
218831,210411,
218830,210395,
218839,210431,
218852,210407,
218828,210398,
218782,210370,
218793,210391,
218761,210364,
218724,210346,
218714,210319,
218691,210350,
218712,210308,
218736,210355,
218737,210326,
218762,210352,
218730,210322,
218724,210336,
218706,210300,
218678,210302,
218663,210271,
218667,210284,
218661,210251,
218655,210282,
218660,210253,
218673,210284,
218695,210250,
218679,210273,
218693,210261,
218727,210300,
218734,210270,
218766,210314,
218796,210272,
218808,210306,
218811,210319,
218856,210330,
218857,210321,
218894,210359,
218913,210335,
218949,210378,
218943,210358,
218970,210390,
218980,210366,
218997,210406,
219040,210384,
219049,210413,
219102,210398,
219103,210451,
219123,210410,
219145,210451,
219164,210412,
219182,210477,
219207,210450,
219240,210516,
219252,210473,
219277,210514,
219313,210514,
219363,210533,
219377,210533,
219383,210564,
219420,210548,
219452,210582,
219451,210565,
219487,210614,
219515,210567,
219555,210632,
219592,210622,
219627,210660,
219652,210652,
219692,210694,
219720,210680,
219720,210736,
219746,210682,
219770,210737,
219778,210717,
219810,210751,
219830,210741,
219868,210760,
219896,210773,
219918,210820,
219949,210808,
220002,210866,
219998,210821,
220035,210867,
220066,210851,
220094,210884,
220104,210861,
220131,210907,
220106,210859,
220019,210837,
219854,210704,
219663,210652,
219443,210524,
219235,210459,
219039,210341,
218889,210335,
218741,210251,
218666,210242,
218613,210190,
218589,210240,
218591,210212,
218582,210219,
218579,210211,
218576,210243,
218574,210208,
218558,210240,
218550,210196,
218500,210219,
218490,210186,
218450,210188,
218407,210149,
218374,210149,
218346,210119,
218351,210140,
218345,210134,
218373,210160,
218361,210112,
218364,210155,
218343,210104,
218343,210136,
218306,210070,
218278,210099,
218252,210078,
218262,210087,
218268,210076,
218277,210108,
218288,210066,
218282,210110,
218281,210076,
218287,210108,
218335,210093,
218348,210130,
218347,210107,
218362,210147,
218385,210123,
218400,210165,
218429,210162,
218464,210185,
218480,210180,
218505,210202,
218534,210183,
218561,210242,
218570,210211,
218583,210253,
218601,210243,
218633,210278,
218656,210254,
218706,210321,
218714,210289,
218756,210329,
218748,210300,
218785,210354,
218791,210316,
218811,210366,
218850,210359,
218876,210402,
218884,210359,
218925,210406,
218954,210400,
218992,210448,
219010,210434,
219036,210480,
219070,210470,
219103,210513,
219098,210486,
219141,210540,
219173,210521,
219200,210535,
219240,210531,
219279,210576,
219294,210571,
219333,210606,
219348,210569,
219375,210622,
219415,210604,
219434,210640,
219454,210631,
219469,210658,
219468,210642,
219491,210666,
219509,210639,
219540,210693,
219588,210690,
219638,210733,
219683,210729,
219692,210763,
219713,210752,
219746,210767,
219740,210751,
219699,210761,
219626,210673,
219446,210609,
219261,210502,
219068,210419,
218839,210308,
218660,210251,
218484,210169,
218374,210131,
218291,210087,
218261,210085,
218239,210092,
218242,210119,
218259,210079,
218268,210121,
218244,210095,
218264,210126,
218245,210099,
218232,210122,
218214,210085,
218186,210097,
218143,210064,
218142,210078,
218120,210044,
218119,210062,
218112,210038,
218115,210042,
218104,210025,
218114,210048,
218095,210009,
218076,210035,
218064,210006,
218014,210012,
218024,209975,
218020,209993,
218015,209965,
217993,209998,
217992,209975,
218006,209995,
217986,209966,
218001,210015,
218022,209986,
218041,210020,
218071,210012,
218089,210038,
218106,210040,
218156,210089,
218178,210066,
218193,210105,
218211,210090,
218237,210095,
218214,210103,
218240,210121,
218288,210108,
218310,210132,
218333,210137,
218365,210168,
218379,210140,
218389,210184,
218422,210181,
218433,210194,
218432,210187,
218462,210207,
218478,210195,
218494,210225,
218525,210232,
218541,210249,
218546,210246,
218597,210281,
218609,210263,
218643,210270,
218666,210282,
218705,210327,
218740,210315,
218774,210351,
218768,210353,
218804,210359,
218828,210369,
218874,210415,
218898,210390,
218930,210418,
218965,210418,
218982,210431,
218999,210443,
219046,210466,
219053,210447,
219073,210477,
219098,210474,
219104,210504,
219140,210500,
219195,210506,
219220,210515,
219275,210561,
219314,210565,
219346,210610,
219369,210614,
219403,210621,
219435,210609,
219432,210631,
219355,210575,
219251,210514,
219065,210413,
218886,210342,
218657,210236,
218476,210154,
218285,210069,
218126,210035,
218040,209970,
217987,209963,
217953,209943,
217936,209953,
217943,209937,
217935,209960,
217911,209940,
217935,209959,
217902,209928,
217901,209945,
217870,209918,
217856,209905,
217815,209866,
217770,209866,
217749,209847,
217753,209844,
217750,209840,
217760,209856,
217750,209839,
217769,209876,
217775,209850,
217743,209862,
217716,209842,
217710,209852,
217663,209809,
217668,209832,
217667,209802,
217675,209829,
217677,209815,
217691,209834,
217674,209811,
217716,209843,
217723,209824,
217743,209851,
217764,209866,
217794,209888,
217810,209887,
217845,209910,
217872,209914,
217908,209942,
217925,209918,
217971,209962,
217976,209951,
218007,209989,
218049,209996,
218058,209993,
218097,210012,
218123,210041,
218135,210030,
218146,210070,
218190,210062,
218252,210097,
218252,210086,
218284,210132,
218285,210106,
218335,210136,
218344,210147,
218365,210150,
218386,210151,
218426,210191,
218447,210194,
218485,210208,
218537,210230,
218544,210250,
218592,210246,
218638,210256,
218669,210286,
218712,210296,
218722,210301,
218770,210342,
218818,210347,
218845,210372,
218879,210382,
218905,210409,
218972,210413,
218971,210428,
219000,210415,
219039,210446,
219073,210458,
219094,210475,
219113,210470,
219148,210509,
219191,210511,
219198,210531,
219239,210532,
219292,210574,
219315,210560,
219360,210595,
219397,210593,
219430,210614,
219461,210627,
219504,210666,
219499,210648,
219522,210662,
219481,210641,
219402,210571,
219227,210485,
218998,210385,
218784,210278,
218597,210192,
218381,210106,
218242,210053,
218105,209984,
218038,209968,
217981,209942,
217949,209948,
217949,209946,
217943,209963,
217946,209956,
217956,209956,
217941,209947,
217916,209937,
217905,209918,
217870,209911,
217838,209889,
217801,209882,
217768,209849,
217737,209848,
217720,209839,
217717,209833,
217716,209837,
217725,209845,
217726,209819,
217725,209838,
217718,209812,
217700,209821,
217690,209831,
217683,209820,
217684,209805,
217664,209809,
217656,209792,
217662,209823,
217658,209798,
217663,209816,
217674,209815,
217702,209826,
217707,209823,
217751,209852,
217752,209848,
217785,209860,
217793,209870,
217799,209877,
217821,209860,
217842,209885,
217858,209883,
217905,209912,
217915,209933,
217953,209938,
217960,209941,
218012,209955,
218023,209962,
218046,209974,
218047,209967,
218076,209987,
218085,209974,
218118,210008,
218163,210042,
218196,210033,
218219,210053,
218257,210064,
218252,210072,
218267,210064,
218282,210095,
218333,210093,
218349,210102,
218386,210143,
218434,210141,
218460,210160,
218501,210175,
218515,210183,
218540,210195,
218545,210207,
218580,210206,
218599,210238,
218646,210247,
218711,210256,
218745,210262,
218763,210302,
218819,210316,
218822,210314,
218831,210319,
218855,210335,
218874,210333,
218904,210343,
218958,210371,
218979,210387,
219021,210399,
219069,210411,
219115,210453,
219141,210454,
219181,210477,
219222,210495,
219247,210488,
219272,210509,
219305,210520,
219340,210532,
219306,210506,
219219,210468,
219060,210385,
218877,210290,
218661,210207,
218474,210109,
218274,210047,
218113,209969,
217985,209938,
217899,209871,
217844,209889,
217821,209851,
217811,209868,
217815,209887,
217836,209884,
217813,209876,
217811,209893,
217802,209872,
217785,209869,
217775,209849,
217744,209823,
217697,209803,
217669,209797,
217691,209811,
217675,209813,
217679,209801,
217685,209801,
217691,209800,
217651,209798,
217645,209785,
217624,209776,
217620,209750,
217612,209779,
217578,209741,
217595,209771,
217581,209755,
217576,209750,
217572,209752,
217589,209762,
217584,209753,
217615,209798,
217634,209771,
217655,209800,
217705,209795,
217727,209839,
217729,209830,
217754,209867,
217791,209850,
217797,209873,
217836,209870,
217879,209896,
217906,209884,
217908,209921,
217933,209901,
217973,209946,
218010,209942,
218040,209987,
218069,209971,
218090,210001,
218111,209991,
218122,210004,
218152,209999,
218187,210030,
218219,210025,
218236,210056,
218260,210052,
218288,210099,
218298,210080,
218336,210108,
218368,210109,
218404,210145,
218447,210153,
218471,210161,
218534,210176,
218570,210210,
218585,210202,
218602,210222,
218634,210215,
218645,210246,
218682,210227,
218704,210262,
218748,210260,
218758,210281,
218786,210270,
218804,210310,
218847,210302,
218876,210322,
218905,210318,
218951,210357,
218977,210350,
219014,210394,
219019,210371,
219071,210399,
219090,210389,
219116,210415,
219106,210408,
219036,210353,
218869,210280,
218705,210209,
218489,210089,
218289,210018,
218095,209934,
217907,209886,
217803,209827,
217692,209797,
217628,209747,
217585,209764,
217583,209735,
217561,209744,
217537,209714,
217528,209743,
217500,209716,
217471,209715,
217451,209673,
217432,209674,
217373,209638,
217342,209635,
217296,209609,
217275,209598,
217255,209599,
217272,209615,
217274,209601,
217305,209612,
217292,209590,
217284,209615,
217247,209586,
217248,209603,
217262,209570,
217240,209582,
217227,209552,
217211,209561,
217222,209565,
217201,209581,
217211,209551,
217237,209577,
217255,209564,
217270,209594,
217270,209595,
217319,209625,
217328,209597,
217333,209619,
217376,209621,
217369,209648,
217409,209628,
217441,209677,
217486,209674,
217496,209695,
217538,209687,
217564,209731,
217606,209712,
217629,209770,
217658,209745,
217669,209754,
217684,209741,
217714,209797,
217766,209795,
217778,209805,
217803,209813,
217840,209844,
217854,209825,
217860,209874,
217904,209842,
217902,209869,
217932,209848,
217964,209897,
217984,209882,
218014,209916,
218064,209920,
218103,209959,
218129,209943,
218145,209983,
218168,209971,
218179,210001,
218214,209990,
218227,210017,
218289,210015,
218320,210062,
218354,210055,
218370,210077,
218409,210075,
218425,210108,
218450,210080,
218488,210146,
218509,210130,
218550,210157,
218596,210143,
218605,210197,
218643,210184,
218663,210242,
218724,210200,
218773,210275,
218815,210254,
218853,210293,
218861,210262,
218844,210293,
218787,210221,
218633,210180,
218432,210060,
218219,209995,
217978,209856,
217721,209778,
217518,209661,
217379,209643,
217259,209564,
217139,209550,
217079,209484,
217021,209494,
216979,209451,
216942,209457,
216919,209413,
216870,209415,
216883,209380,
216850,209410,
216823,209349,
216800,209378,
216768,209323,
216721,209324,
216658,209275,
216595,209286,
216592,209235,
216559,209243,
216563,209205,
216557,209242,
216575,209231,
216543,209242,
216520,209190,
216484,209200,
216444,209145,
216403,209162,
216413,209117,
216366,209133,
216375,209128,
216370,209150,
216380,209118,
216394,209139,
216398,209107,
216380,209136,
216391,209104,
216352,209133,
216346,209087,
216379,209144,
216427,209124,
216453,209153,
216498,209150,
216497,209186,
216538,209179,
216558,209215,
216572,209187,
216597,209219,
216613,209205,
216631,209245,
216650,209233,
216676,209261,
216693,209258,
216735,209288,
216745,209284,
216736,209308,
216726,209269,
216708,209270,
216707,209241,
216701,209292,
216707,209278,
216740,209327,
216772,209324,
216796,209371,
216812,209351,
216833,209381,
216816,209360,
216814,209389,
216819,209370,
216842,209405,
216857,209399,
216924,209466,
216978,209479,
217040,209532,
217107,209532,
217170,209594,
217203,209581,
217267,209658,
217336,209653,
217404,209702,
217439,209690,
217492,209767,
217530,209741,
217580,209774,
217582,209762,
217596,209823,
217588,209760,
217534,209749,
217395,209658,
217237,209622,
217037,209489,
216837,209421,
216660,209349,
216528,209328,
216421,209239,
216359,209248,
216297,209201,
216300,209223,
216303,209199,
216289,209227,
216310,209197,
216306,209212,
216329,209191,
216346,209233,
216353,209199,
216330,209222,
216327,209193,
216285,209221,
216278,209160,
216266,209184,
216277,209148,
216312,209195,
216342,209190,
216340,209229,
216359,209190,
216356,209215,
216339,209171,
216304,209183,
216306,209150,
216283,209166,
216307,209136,
216298,209174,
216332,209166,
216367,209197,
216379,209205,
216410,209220,
216417,209194,
216430,209225,
216460,209200,
216480,209243,
216498,209214,
216544,209259,
216558,209264,
216594,209285,
216605,209280,
216642,209307,
216699,209273,
216703,209319,
216743,209297,
216773,209343,
216775,209330,
216789,209352,
216842,209329,
216876,209399,
216891,209353,
216915,209407,
216958,209413,
216976,209441,
217017,209406,
217032,209481,
217068,209436,
217099,209490,
217126,209459,
217148,209517,
217187,209494,
217208,209541,
217238,209515,
217286,209570,
217331,209565,
217372,209597,
217383,209576,
217415,209644,
217466,209615,
217481,209665,
217509,209635,
217540,209697,
217565,209655,
217592,209705,
217633,209688,
217666,209732,
217697,209726,
217737,209771,
217760,209759,
217801,209791,
217819,209752,
217842,209799,
217805,209741,
217685,209725,
217517,209612,
217283,209531,
217045,209390,
216787,209292,
216527,209159,
216367,209096,
216198,209021,
216119,208991,
216008,208934,
215986,208937,
215908,208889,
215936,208910,
215877,208865,
215861,208895,
215841,208847,
215813,208859,
215770,208808,
215762,208835,
215685,208756,
215692,208787,
215633,208750,
215632,208768,
215589,208723,
215632,208773,
215594,208736,
215646,208772,
215596,208728,
215629,208746,
215609,208731,
215637,208744,
215588,208719,
215604,208746,
215541,208708,
215586,208747,
215550,208701,
215590,208752,
215575,208718,
215645,208789,
215662,208771,
215726,208838,
215734,208797,
215776,208847,
215762,208831,
215815,208871,
215795,208837,
215870,208894,
215853,208879,
215939,208907,
215924,208894,
215982,208954,
215985,208944,
216036,208959,
216032,208955,
216105,208998,
216082,208963,
216142,209001,
216116,208994,
216197,209042,
216184,209006,
216245,209094,
216261,209081,
216331,209102,
216290,209074,
216363,209131,
216348,209107,
216426,209167,
216426,209124,
216498,209200,
216510,209174,
216583,209212,
216568,209207,
216646,209260,
216648,209235,
216721,209275,
216725,209266,
216778,209323,
216780,209300,
216837,209341,
216871,209330,
216911,209389,
216903,209358,
216974,209422,
216982,209387,
217060,209453,
217088,209438,
217137,209472,
217140,209470,
217195,209507,
217174,209474,
217204,209495,
217253,209517,
217309,209554,
217321,209549,
217394,209600,
217402,209566,
217467,209617,
217476,209630,
217559,209667,
217549,209646,
217607,209703,
217643,209692,
217708,209720,
217654,209700,
217624,209660,
217440,209557,
217229,209472,
216943,209322,
216685,209225,
216408,209068,
216205,209000,
216000,208891,
215888,208871,
215789,208820,
215747,208804,
215676,208766,
215685,208780,
215639,208733,
215639,208763,
215561,208720,
215595,208745,
215523,208680,
215512,208689,
215444,208658,
215424,208669,
215349,208594,
215318,208615,
215286,208589,
215314,208601,
215284,208572,
215317,208604,
215304,208583,
215327,208604,
215303,208589,
215325,208598,
215292,208582,
215350,208609,
215307,208577,
215318,208607,
215303,208577,
215331,208617,
215322,208571,
215367,208635,
215368,208633,
215407,208661,
215433,208628,
215463,208673,
215479,208680,
215544,208713,
215541,208691,
215609,208729,
215624,208741,
215686,208780,
215689,208767,
215747,208819,
215775,208814,
215836,208840,
215852,208821,
215878,208880,
215900,208874,
215950,208897,
215967,208884,
216021,208924,
216068,208942,
216117,208996,
216152,208975,
216205,209044,
216230,209013,
216302,209065,
216303,209059,
216356,209099,
216402,209093,
216462,209134,
216457,209135,
216523,209160,
216574,209179,
216644,209234,
216681,209236,
216715,209256,
216758,209272,
216825,209319,
216838,209293,
216898,209342,
216934,209341,
216985,209401,
216998,209380,
217034,209403,
217051,209423,
217124,209462,
217133,209448,
217193,209499,
217212,209488,
217265,209525,
217286,209528,
217337,209545,
217355,209542,
217422,209580,
217431,209576,
217474,209611,
217494,209608,
217553,209649,
217572,209640,
217638,209692,
217676,209676,
217731,209716,
217713,209701,
217697,209691,
217551,209604,
217371,209528,
217134,209395,
216899,209284,
216652,209166,
216444,209087,
216263,208982,
216135,208951,
216010,208883,
215929,208881,
215868,208833,
215853,208840,
215805,208809,
215810,208824,
215761,208776,
215783,208805,
215766,208780,
215773,208801,
215699,208747,
215689,208735,
215613,208691,
215590,208689,
215545,208667,
215559,208694,
215550,208666,
215578,208701,
215594,208679,
215610,208705,
215564,208671,
215560,208681,
215515,208655,
215510,208657,
215480,208611,
215501,208629,
215482,208629,
215515,208648,
215514,208640,
215547,208657,
215537,208648,
215560,208694,
215614,208701,
215631,208715,
215638,208702,
215684,208743,
215717,208735,
215772,208753,
215792,208750,
215827,208801,
215853,208814,
215924,208830,
215940,208817,
215965,208836,
215982,208851,
216030,208880,
216018,208854,
216062,208890,
216103,208905,
216149,208935,
216160,208939,
216200,208935,
216190,208958,
216227,208946,
216245,208975,
216325,208997,
216341,209011,
216390,209035,
216394,209051,
216448,209065,
216486,209090,
216532,209100,
216556,209127,
216599,209121,
216643,209149,
216700,209179,
216725,209185,
216748,209192,
216780,209207,
216836,209232,
216879,209266,
216930,209270,
216979,209280,
217010,209298,
217040,209332,
217095,209340,
217119,209369,
217144,209364,
217145,209392,
217186,209389,
217234,209416,
217279,209445,
217308,209459,
217349,209445,
217349,209482,
217409,209476,
217434,209503,
217486,209504,
217512,209556,
217563,209546,
217607,209602,
217652,209601,
217685,209609,
217717,209631,
217743,209637,
217745,209625,
217691,209615,
217602,209530,
217416,209449,
217181,209293,
216932,209234,
216663,209067,
216427,208984,
216179,208831,
215980,208754,
215825,208672,
215746,208673,
215683,208640,
215644,208627,
215588,208594,
215567,208597,
215549,208581,
215531,208594,
215481,208535,
215439,208530,
215395,208489,
215353,208507,
215302,208458,
215258,208452,
215217,208407,
215211,208418,
215198,208417,
215249,208428,
215250,208417,
215266,208453,
215269,208425,
215277,208473,
215260,208439,
215263,208434,
215254,208423,
215250,208443,
215243,208434,
215261,208471,
215276,208452,
215302,208484,
215315,208459,
215338,208500,
215351,208489,
215401,208520,
215400,208499,
215464,208544,
215472,208546,
215540,208587,
215550,208576,
215614,208624,
215610,208597,
215651,208642,
215657,208630,
215725,208679,
215746,208673,
215832,208728,
215851,208702,
215915,208752,
215925,208752,
215985,208792,
215989,208781,
216033,208817,
216049,208812,
216096,208869,
216137,208849,
216194,208887,
216199,208874,
216266,208925,
216265,208923,
216341,208956,
216345,208939,
216391,208986,
216410,208983,
216472,209037,
216479,209019,
216575,209085,
216586,209055,
216642,209095,
216644,209108,
216733,209149,
216748,209144,
216851,209218,
216840,209188,
216910,209247,
216932,209226,
216998,209278,
216986,209261,
217054,209298,
217052,209287,
217141,209342,
217145,209341,
217244,209384,
217238,209382,
217311,209410,
217298,209395,
217367,209452,
217368,209432,
217420,209450,
217431,209449,
217500,209489,
217500,209478,
217575,209556,
217604,209536,
217677,209580,
217680,209556,

