COM4 connected!
246420,230085,
246467,230058,
246565,230149,
246577,230098,
246663,230205,
246600,230103,
246467,230063,
246105,229839,
245638,229671,
244990,229347,
244408,229156,
243916,228891,
243610,228815,
243305,228635,
243231,228661,
243111,228570,
243174,228655,
243161,228610,
243318,228700,
243384,228684,
243548,228812,
243621,228785,
243796,228911,
243852,228907,
243977,229000,
243980,228952,
244051,229024,
243997,228937,
244031,229022,
243996,228957,
244069,229021,
244072,228982,
244145,229073,
244168,229027,
244260,229105,
244219,229021,
244265,229085,
244175,228993,
244173,229050,
244088,228964,
244066,228993,
243967,228911,
243967,228955,
243900,228878,
243960,228943,
243915,228901,
243992,228960,
244002,228932,
244110,229021,
244138,228982,
244282,229084,
244311,229064,
244477,229152,
244508,229118,
244653,229232,
244682,229199,
244803,229298,
244831,229260,
244953,229358,
244934,229300,
245028,229391,
245043,229324,
245134,229430,
245125,229365,
245198,229462,
245154,229390,
245224,229461,
245194,229387,
245271,229479,
245230,229402,
245306,229489,
245305,229441,
245406,229545,
245410,229475,
245512,229585,
245576,229554,
245687,229653,
245720,229602,
245831,229704,
245824,229661,
245856,229714,
245634,229562,
245392,229466,
244870,229175,
244349,229001,
243728,228694,
243347,228574,
242937,228360,
242814,228334,
242600,228207,
242600,228241,
242545,228175,
242620,228281,
242641,228227,
242805,228370,
242845,228321,
243013,228446,
243062,228414,
243214,228534,
243211,228472,
243307,228560,
243258,228497,
243304,228545,
243260,228479,
243315,228555,
243290,228488,
243402,228602,
243424,228548,
243554,228657,
243553,228590,
243674,228679,
243602,228605,
243635,228671,
243529,228580,
243548,228622,
243407,228517,
243417,228559,
243308,228477,
243349,228529,
243282,228453,
243355,228535,
243324,228466,
243418,228588,
243432,228528,
243578,228643,
243577,228603,
243725,228696,
243764,228659,
243902,228764,
243935,228718,
244085,228845,
244095,228799,
244228,228901,
244223,228836,
244348,228945,
244337,228899,
244425,228978,
244413,228923,
244507,228987,
244444,228947,
244528,228992,
244471,228956,
244562,229002,
244490,228960,
244576,229015,
244540,228956,
244652,229050,
244627,228995,
244752,229072,
244737,229061,
244890,229140,
244889,229120,
245016,229176,
244956,229149,
245002,229177,
244807,229049,
244541,228933,
243985,228667,
243503,228453,
242918,228179,
242573,228060,
242218,227892,
242087,227832,
241900,227726,
241887,227746,
241802,227699,
241894,227756,
241900,227744,
242020,227797,
242053,227788,
242190,227889,
242202,227848,
242332,227940,
242283,227878,
242367,227929,
242284,227872,
242313,227902,
242249,227841,
242312,227883,
242294,227856,
242421,227916,
242428,227909,
242526,227948,
242530,227950,
242611,227996,
242552,227944,
242583,227981,
242476,227928,
242492,227937,
242395,227870,
242397,227886,
242307,227818,
242332,227847,
242286,227798,
242351,227855,
242339,227830,
242421,227883,
242425,227865,
242542,227936,
242571,227945,
242692,228015,
242722,227996,
242851,228061,
242892,228058,
242992,228132,
243000,228110,
243121,228175,
243122,228144,
243200,228193,
243197,228172,
243278,228230,
243267,228201,
243350,228257,
243323,228236,
243410,228294,
243392,228246,
243437,228293,
243409,228270,
243487,228314,
243455,228288,
243533,228331,
243528,228296,
243623,228356,
243628,228346,
243731,228415,
243779,228409,
243877,228482,
243926,228460,
244015,228538,
244032,228524,
244067,228543,
243898,228447,
243655,228332,
243144,228086,
242638,227859,
242136,227626,
241808,227482,
241465,227340,
241303,227254,
241086,227170,
241030,227152,
240930,227118,
240990,227125,
240993,227136,
241078,227166,
241096,227179,
241203,227200,
241225,227218,
241287,227238,
241286,227231,
241338,227231,
241269,227206,
241280,227196,
241225,227172,
241255,227169,
241240,227174,
241315,227197,
241353,227198,
241427,227252,
241462,227273,
241537,227264,
241512,227258,
241522,227274,
241483,227233,
241491,227221,
241403,227183,
241381,227172,
241323,227151,
241324,227139,
241283,227133,
241323,227143,
241329,227140,
241380,227155,
241413,227179,
241515,227210,
241562,227250,
241637,227275,
241717,227293,
241803,227330,
241855,227357,
241924,227365,
241991,227411,
242037,227424,
242076,227447,
242115,227454,
242135,227463,
242150,227477,
242170,227480,
242203,227477,
242217,227477,
242233,227481,
242254,227499,
242268,227493,
242281,227498,
242320,227475,
242329,227515,
242360,227522,
242365,227526,
242411,227530,
242423,227563,
242448,227563,
242479,227573,
242532,227587,
242567,227614,
242629,227623,
242707,227659,
242791,227688,
242867,227737,
242965,227766,
243033,227806,
243082,227820,
243061,227801,
242911,227704,
242551,227556,
242059,227300,
241605,227104,
241198,226913,
240838,226780,
240554,226625,
240332,226574,
240169,226472,
240081,226464,
240055,226436,
240047,226457,
240104,226452,
240172,226522,
240225,226490,
240289,226548,
240315,226536,
240356,226578,
240356,226527,
240363,226552,
240326,226523,
240318,226524,
240278,226468,
240277,226513,
240271,226471,
240354,226529,
240389,226529,
240485,226594,
240515,226567,
240592,226625,
240602,226580,
240619,226643,
240570,226571,
240553,226601,
240531,226524,
240501,226575,
240480,226521,
240459,226553,
240464,226498,
240484,226551,
240479,226530,
240543,226579,
240565,226561,
240658,226628,
240692,226614,
240772,226688,
240811,226673,
240944,226745,
240955,226720,
241059,226801,
241115,226778,
241190,226861,
241206,226826,
241301,226897,
241326,226877,
241390,226947,
241406,226906,
241477,226972,
241478,226940,
241546,227003,
241573,226976,
241648,227065,
241648,227004,
241740,227077,
241719,227036,
241803,227127,
241814,227090,
241902,227173,
241911,227128,
242013,227219,
242034,227175,
242117,227262,
242124,227207,
242196,227287,
242215,227240,
242301,227349,
242323,227302,
242438,227406,
242458,227349,
242592,227443,
242624,227403,
242732,227504,
242781,227493,
242903,227557,
242929,227533,
243034,227615,
242974,227553,
242903,227550,
242521,227320,
242007,227137,
241375,226806,
240916,226665,
240472,226434,
240239,226370,
239954,226204,
239851,226207,
239699,226102,
239712,226157,
239677,226104,
239781,226186,
239790,226165,
239920,226239,
239931,226208,
240022,226296,
239991,226235,
240069,226309,
239999,226234,
240031,226288,
239958,226194,
239987,226253,
239917,226172,
239989,226255,
239968,226216,
240090,226295,
240090,226273,
240238,226375,
240232,226333,
240345,226416,
240297,226344,
240323,226396,
240246,226316,
240272,226349,
240176,226284,
240231,226332,
240130,226273,
240201,226339,
240153,226253,
240222,226355,
240195,226297,
240311,226381,
240308,226345,
240426,226427,
240432,226385,
240556,226488,
240560,226450,
240688,226555,
240698,226511,
240821,226604,
240832,226539,
240943,226645,
240945,226615,
241048,226695,
241031,226633,
241144,226742,
241128,226678,
241247,226774,
241212,226722,
241336,226832,
241322,226752,
241413,226860,
241395,226795,
241518,226889,
241502,226842,
241602,226942,
241582,226871,
241692,226963,
241659,226907,
241764,227006,
241749,226950,
241840,227044,
241818,226995,
241929,227086,
241909,227015,
241993,227101,
241953,227040,
242053,227146,
242040,227070,
242143,227172,
242116,227116,
242242,227224,
242229,227164,
242375,227265,
242364,227215,
242483,227336,
242503,227275,
242593,227383,
242561,227309,
242613,227366,
242369,227205,
242081,227096,
241490,226792,
241042,226641,
240546,226360,
240253,226294,
239857,226079,
239715,226062,
239495,225945,
239462,225979,
239356,225887,
239436,225976,
239397,225926,
239530,226020,
239533,225976,
239653,226067,
239621,226018,
239722,226094,
239636,226033,
239712,226079,
239611,225992,
239638,226055,
239528,225962,
239601,226011,
239536,225953,
239643,226044,
239635,226022,
239766,226108,
239746,226075,
239869,226147,
239839,226093,
239915,226153,
239840,226096,
239864,226126,
239765,226059,
239807,226091,
239707,226014,
239735,226062,
239666,225999,
239746,226069,
239669,226011,
239778,226081,
239737,226053,
239855,226113,
239839,226087,
239967,226156,
239965,226122,
240092,226191,
240068,226169,
240202,226238,
240161,226212,
240296,226282,
240271,226247,
240385,226308,
240361,226287,
240448,226356,
240436,226328,
240534,226380,
240523,226351,
240621,226429,
240605,226387,
240715,226455,
240686,226420,
240766,226482,
240760,226455,
240851,226516,
240835,226497,
240924,226547,
240927,226520,
241042,226599,
241027,226565,
241134,226629,
241142,226617,
241241,226690,
241239,226666,
241335,226732,
241329,226692,
241414,226763,
241403,226716,
241498,226798,
241517,226768,
241634,226848,
241635,226844,
241761,226921,
241810,226907,
241930,226977,
241975,226967,
242122,227044,
242133,227032,
242249,227098,
242193,227063,
242122,227013,
241767,226853,
241292,226651,
240715,226359,
240319,226226,
239918,226039,
239661,225945,
239397,225815,
239283,225800,
239161,225744,
239165,225762,
239147,225749,
239236,225797,
239258,225805,
239404,225859,
239428,225889,
239528,225935,
239524,225918,
239596,225949,
239544,225928,
239571,225924,
239502,225915,
239518,225921,
239491,225889,
239536,225925,
239559,225920,
239648,225972,
239675,225984,
239784,226031,
239782,226024,
239875,226047,
239840,226060,
239873,226075,
239810,226025,
239811,226036,
239754,226007,
239742,226021,
239695,225982,
239717,225999,
239676,225978,
239744,226012,
239744,226004,
239839,226051,
239832,226058,
239907,226097,
239971,226118,
240081,226160,
240138,226177,
240203,226215,
240250,226223,
240329,226274,
240345,226266,
240412,226296,
240444,226326,
240513,226339,
240539,226355,
240613,226374,
240612,226392,
240676,226416,
240678,226426,
240742,226427,
240752,226462,
240799,226469,
240803,226471,
240863,226496,
240895,226506,
240936,226532,
240969,226545,
241021,226543,
241072,226579,
241134,226589,
241155,226614,
241214,226620,
241263,226655,
241313,226660,
241322,226697,
241378,226697,
241423,226740,
241465,226731,
241486,226769,
241554,226771,
241592,226801,
241664,226803,
241722,226855,
241796,226854,
241875,226910,
241964,226940,
242058,226991,
242155,226998,
242230,227062,
242318,227076,
242354,227118,
242312,227055,
242114,227007,
241716,226785,
241113,226541,
240566,226284,
240141,226134,
239787,225947,
239508,225859,
239302,225750,
239182,225744,
239103,225679,
239126,225718,
239141,225703,
239223,225770,
239319,225789,
239421,225866,
239501,225864,
239587,225935,
239640,225918,
239690,225970,
239666,225936,
239683,225985,
239644,225930,
239634,225964,
239623,225915,
239680,225975,
239729,225952,
239806,226022,
239888,226039,
239999,226103,
240025,226071,
240066,226144,
240094,226093,
240096,226156,
240056,226082,
240050,226127,
240005,226062,
239997,226084,
239950,226037,
239968,226091,
239954,226030,
240022,226117,
240041,226086,
240151,226175,
240169,226164,
240305,226248,
240362,226230,
240500,226330,
240547,226317,
240686,226399,
240736,226381,
240873,226485,
240922,226467,
241045,226557,
241090,226535,
241197,226624,
241216,226579,
241329,226663,
241324,226626,
241418,226724,
241397,226659,
241495,226743,
241506,226710,
241572,226783,
241570,226729,
241654,226808,
241622,226744,
241678,226829,
241705,226781,
241800,226877,
241805,226825,
241918,226922,
241931,226879,
242056,226969,
242079,226959,
242184,227029,
242192,227006,
242311,227074,
242324,227046,
242433,227134,
242444,227097,
242584,227176,
242575,227134,
242689,227239,
242712,227196,
242836,227287,
242857,227249,
242980,227351,
243032,227338,
243177,227434,
243208,227413,
243333,227494,
243351,227466,
243424,227540,
243293,227441,
243107,227370,
242538,227069,
241865,226821,
241068,226466,
240565,226310,
240130,226082,
239927,226055,
239689,225896,
239655,225946,
239553,225861,
239629,225958,
239641,225904,
239793,226010,
239838,226007,
240034,226126,
240092,226109,
240224,226224,
240270,226185,
240361,226267,
240335,226202,
240363,226269,
240303,226200,
240339,226276,
240321,226189,
240384,226291,
240380,226238,
240545,226354,
240554,226315,
240691,226409,
240699,226376,
240791,226453,
240731,226376,
240750,226446,
240672,226358,
240683,226418,
240596,226325,
240602,226395,
240525,226309,
240588,226383,
240547,226323,
240659,226411,
240642,226349,
240795,226471,
240807,226430,
240948,226552,
240986,226504,
241149,226630,
241196,226599,
241352,226734,
241406,226693,
241590,226818,
241618,226783,
241775,226889,
241797,226838,
241954,226961,
241963,226902,
242082,227029,
242094,226959,
242214,227080,
242210,227025,
242323,227129,
242306,227060,
242424,227161,
242411,227111,
242519,227202,
242508,227140,
242613,227242,
242601,227195,
242725,227287,
242716,227236,
242844,227347,
242824,227276,
242949,227374,
242943,227344,
243084,227432,
243066,227390,
243194,227483,
243172,227445,
243288,227528,
243257,227483,
243396,227567,
243367,227537,
243491,227633,
243506,227568,
243666,227681,
243673,227655,
243828,227757,
243843,227727,
244006,227835,
244021,227806,
244150,227889,
244090,227832,
244085,227855,
243753,227649,
243294,227475,
242475,227072,
241727,226819,
241029,226523,
240683,226412,
240353,226233,
240239,226228,
240111,226140,
240139,226207,
240128,226173,
240270,226262,
240313,226271,
240516,226370,
240562,226378,
240769,226488,
240825,226477,
240969,226566,
240963,226531,
241048,226613,
240978,226548,
241036,226586,
240968,226551,
241047,226618,
241049,226588,
241167,226663,
241194,226651,
241328,226738,
241332,226715,
241431,226769,
241383,226726,
241441,226767,
241354,226715,
241396,226756,
241276,226679,
241283,226692,
241199,226656,
241247,226693,
241200,226647,
241285,226725,
241280,226686,
241399,226785,
241445,226774,
241575,226852,
241660,226846,
241810,226950,
241871,226961,
242070,227051,
242138,227042,
242306,227158,
242364,227152,
242488,227243,
242537,227226,
242682,227314,
242740,227297,
242842,227389,
242871,227364,
242958,227416,
242955,227415,
243053,227454,
243046,227446,
243148,227487,
243147,227490,
243248,227536,
243250,227527,
243359,227575,
243355,227567,
243481,227644,
243480,227628,
243586,227683,
243604,227674,
243698,227718,
243725,227736,
243841,227783,
243858,227780,
243963,227827,
243972,227841,
244090,227890,
244104,227901,
244205,227932,
244251,227966,
244359,228009,
244393,228016,
244495,228065,
244546,228091,
244672,228144,
244742,228173,
244851,228219,
244916,228262,
245016,228281,
245061,228303,
245092,228321,
244971,228259,
244700,228112,
244103,227845,
243373,227521,
242457,227130,
241745,226853,
241227,226654,
240961,226535,
240793,226484,
240733,226471,
240713,226469,
240799,226503,
240878,226547,
241029,226621,
241159,226678,
241346,226753,
241471,226812,
241624,226871,
241732,226913,
241828,226955,
241876,226971,
241902,226992,
241907,226991,
241919,226980,
241928,226997,
241997,227014,
242083,227084,
242165,227107,
242246,227139,
242325,227158,
242348,227195,
242362,227161,
242335,227171,
242288,227127,
242250,227123,
242164,227075,
242093,227070,
242040,227032,
241995,227041,
242005,227009,
242015,227047,
242067,227062,
242125,227089,
242215,227113,
242312,227176,
242439,227208,
242566,227291,
242690,227316,
242798,227385,
242923,227411,
243050,227488,
243173,227507,
243243,227582,
243336,227593,
243425,227658,
243493,227657,
243556,227719,
243641,227737,
243708,227780,
243775,227751,
243859,227830,
243913,227819,
243980,227894,
244025,227874,
244112,227960,
244165,227927,
244229,228001,
244302,227987,
244384,228067,
244429,228058,
244528,228113,
244563,228108,
244653,228177,
244704,228156,
244787,228219,
244843,228223,
244908,228270,
244949,228264,
245021,228328,
245041,228285,
245108,228346,
245124,228332,
245185,228381,
245230,228383,
245312,228446,
245355,228407,
245428,228487,
245475,228464,
245571,228529,
245561,228507,
245546,228521,
245368,228397,
245003,228274,
244326,227911,
243495,227604,
242527,227153,
241888,226962,
241426,226721,
241169,226675,
240963,226548,
240950,226579,
240890,226518,
240961,226593,
240996,226580,
241129,226674,
241216,226657,
241377,226779,
241452,226761,
241598,226877,
241642,226852,
241768,226943,
241776,226888,
241837,226969,
241809,226911,
241868,226980,
241883,226936,
242000,227037,
242078,227017,
242208,227124,
242241,227078,
242325,227171,
242313,227113,
242351,227177,
242268,227097,
242288,227140,
242184,227039,
242177,227087,
242073,227008,
242091,227043,
242030,226979,
242097,227060,
242072,227014,
242167,227097,
242137,227056,
242246,227150,
242263,227115,
242410,227201,
242472,227214,
242630,227336,
242688,227301,
242836,227402,
242864,227360,
243000,227477,
243007,227421,
243127,227512,
243130,227474,
243254,227556,
243238,227510,
243372,227610,
243385,227542,
243499,227652,
243477,227578,
243608,227684,
243606,227626,
243712,227728,
243685,227660,
243781,227749,
243756,227674,
243841,227764,
243839,227728,
243947,227809,
243938,227766,
244069,227863,
244073,227785,
244206,227897,
244213,227847,
244330,227948,
244334,227916,
244439,227988,
244444,227950,
244570,228043,
244562,227995,
244692,228090,
244709,228055,
244852,228161,
244885,228108,
245027,228241,
245061,228208,
245200,228300,
245172,228222,
245217,228313,
245017,228149,
244731,228042,
244069,227700,
243395,227454,
242494,227049,
241944,226883,
241487,226618,
241281,226614,
241077,226480,
241112,226542,
241048,226460,
241181,226590,
241246,226563,
241435,226711,
241550,226723,
241827,226878,
241955,226883,
242187,227008,
242264,227007,
242410,227119,
242420,227049,
242531,227159,
242500,227087,
242587,227162,
242588,227115,
242719,227224,
242748,227192,
242920,227293,
242924,227266,
243040,227352,
242987,227281,
243050,227357,
242956,227265,
242984,227310,
242845,227209,
242848,227251,
242713,227169,
242762,227223,
242662,227138,
242734,227197,
242701,227165,
242845,227266,
242859,227233,
243036,227348,
243069,227332,
243258,227419,
243326,227409,
243536,227539,
243590,227516,
243797,227645,
243845,227628,
244028,227717,
244074,227709,
244235,227818,
244243,227797,
244386,227873,
244407,227844,
244506,227933,
244498,227884,
244626,227957,
244605,227933,
244683,228005,
244657,227944,
244755,228024,
244722,227982,
244816,228041,
244789,228010,
244874,228063,
244879,228038,
244984,228092,
244990,228070,
245093,228152,
245071,228121,
245201,228193,
245173,228162,
245299,228246,
245281,228203,
245371,228276,
245352,228222,
245441,228307,
245442,228265,
245520,228323,
245494,228296,
245613,228363,
245613,228330,
245694,228415,
245704,228378,
245825,228457,
245823,228427,
245917,228503,
245859,228463,
245882,228477,
245619,228322,
245238,228151,
244530,227793,
243765,227502,
242863,227112,
242234,226889,
241777,226687,
241547,226632,
241347,226516,
241334,226545,
241297,226523,
241408,226589,
241461,226589,
241663,226694,
241759,226720,
241968,226830,
242101,226864,
242271,226944,
242327,226968,
242453,227026,
242455,227014,
242492,227035,
242432,227015,
242461,227029,
242456,227004,
242534,227055,
242574,227068,
242697,227120,
242724,227122,
242852,227186,
242853,227172,
242906,227206,
242878,227169,
242902,227190,
242838,227162,
242822,227138,
242754,227119,
242765,227122,
242715,227109,
242764,227126,
242764,227124,
242834,227146,
242858,227183,
242989,227211,
243045,227262,
243176,227287,
243248,227337,
243421,227383,
243505,227423,
243641,227471,
243716,227489,
243845,227546,
243891,227586,
244019,227631,
244061,227643,
244160,227688,
244187,227709,
244280,227717,
244293,227736,
244377,227753,
244394,227773,
244437,227778,
244456,227808,
244518,227796,
244506,227824,
244579,227846,
244581,227855,
244656,227868,
244687,227891,
244735,227898,
244769,227924,
244833,227943,
244882,227975,
244948,227993,
244979,228040,
245092,228038,
245106,228070,
245174,228073,
245220,228125,
245301,228133,
245323,228162,
245402,228190,
245440,228218,
245484,228218,
245526,228242,
245591,228255,
245605,228279,
245665,228295,
245717,228335,
245776,228331,
245837,228389,
245910,228392,
245952,228426,
245991,228420,
245977,228424,
245853,228346,
245505,228202,
244947,227893,
244162,227574,
243288,227188,
242506,226912,
241982,226673,
241654,226565,
241451,226459,
241359,226470,
241347,226442,
241387,226480,
241461,226497,
241594,226578,
241741,226620,
241937,226694,
242092,226750,
242242,226855,
242371,226857,
242457,226934,
242477,226908,
242522,226962,
242483,226895,
242476,226923,
242445,226882,
242472,226933,
242506,226912,
242610,226985,
242678,226981,
242763,227042,
242818,227044,
242862,227083,
242862,227031,
242850,227082,
242816,227011,
242784,227036,
242701,226979,
242662,227000,
242587,226925,
242575,226962,
242566,226919,
242595,226973,
242612,226935,
242700,227021,
242778,227005,
242870,227072,
242937,227074,
243082,227161,
243136,227152,
243285,227266,
243374,227224,
243493,227336,
243552,227302,
243654,227394,
243698,227359,
243786,227439,
243828,227411,
243935,227494,
243904,227460,
244011,227532,
244019,227478,
244082,227555,
244070,227502,
244136,227579,
244120,227524,
244199,227591,
244200,227543,
244258,227617,
244269,227564,
244359,227653,
244348,227607,
244441,227679,
244447,227642,
244526,227735,
244526,227688,
244609,227773,
244617,227712,
244714,227815,
244725,227774,
244823,227848,
244847,227819,
244949,227889,
244968,227864,
245072,227952,
245080,227909,
245184,227977,
245177,227945,
245262,228015,
245263,227979,
245394,228068,
245398,228021,
245530,228108,
245525,228079,
245641,228177,
245670,228139,
245763,228229,
245747,228180,
245768,228221,
245540,228057,
245202,227944,
244540,227580,
243810,227330,
242908,226911,
242303,226713,
241794,226459,
241576,226396,
241329,226273,
241306,226299,
241246,226232,
241344,226331,
241399,226306,
241578,226440,
241663,226440,
241879,226558,
241991,226565,
242167,226671,
242206,226650,
242334,226743,
242321,226681,
242383,226759,
242307,226677,
242327,226742,
242263,226655,
242333,226729,
242301,226679,
242419,226764,
242446,226739,
242569,226855,
242576,226772,
242672,226861,
242626,226794,
242695,226872,
242634,226795,
242693,226848,
242600,226758,
242611,226829,
242543,226738,
242602,226829,
242551,226755,
242670,226861,
242665,226786,
242792,226905,
242808,226878,
242976,226984,
243022,226948,
243197,227074,
243245,227040,
243436,227161,
243477,227121,
243647,227257,
243690,227198,
243822,227319,
243847,227274,
243987,227378,
243989,227336,
244110,227421,
244100,227366,
244215,227465,
244195,227413,
244295,227478,
244281,227456,
244368,227519,
244334,227476,
244440,227561,
244417,227491,
244512,227590,
244490,227535,
244584,227607,
244578,227543,
244676,227641,
244631,227583,
244763,227692,
244750,227631,
244879,227720,
244859,227695,
245008,227768,
244997,227735,
245125,227841,
245129,227798,
245259,227894,
245241,227851,
245362,227920,
245333,227877,
245424,227964,
245431,227918,
245538,227990,
245503,227945,
245621,228040,
245599,227986,
245702,228063,
245703,228044,
245824,228119,
245809,228077,
245925,228154,
245897,228129,
245984,228180,
245883,228090,
245749,228055,
245277,227808,
244666,227540,
243838,227137,
243013,226821,
242262,226512,
241859,226371,
241510,226205,
241393,226186,
241266,226100,
241317,226149,
241319,226132,
241469,226226,
241538,226233,
241738,226360,
241846,226375,
242020,226480,
242082,226475,
242237,226557,
242251,226529,
242340,226593,
242289,226555,
242328,226587,
242233,226508,
242275,226545,
242234,226524,
242336,226585,
242358,226566,
242502,226649,
242504,226625,
242639,226708,
242628,226682,
242710,226723,
242674,226687,
242699,226723,
242616,226659,
242662,226684,
242580,226645,
242617,226685,
242568,226626,
242646,226691,
242605,226653,
242688,226705,
242729,226690,
242853,226769,
242907,226780,
243036,226862,
243123,226848,
243274,226939,
243345,226969,
243503,227010,
243563,227044,
243698,227104,
243746,227118,
243871,227174,
243909,227172,
244012,227232,
244050,227211,
244130,227287,
244159,227277,
244250,227336,
244253,227315,
244347,227362,
244352,227363,
244436,227391,
244470,227406,
244534,227460,
244557,227448,
244655,227489,
244670,227487,
244751,227521,
244743,227536,
244840,227573,
244859,227559,
244945,227610,
244979,227624,
245071,227665,
245090,227669,
245185,227701,
245190,227706,
245294,227753,
245297,227758,
245380,227794,
245392,227807,
245482,227831,
245484,227837,
245534,227848,
245551,227862,
245601,227887,
245598,227882,
245649,227897,
245645,227914,
245694,227914,
245735,227938,
245782,227951,
245803,227964,
245863,227978,
245899,228032,
245962,228024,
245973,228022,
245949,228009,
245797,227931,
245484,227766,
244916,227522,
244184,227168,
243339,226830,
242547,226490,
241989,226301,
241670,226151,
241461,226093,
241350,226025,
241304,226034,
241367,226042,
241449,226098,
241567,226150,
241705,226233,
241870,226262,
242019,226367,
242159,226393,
242278,226453,
242362,226482,
242423,226522,
242440,226495,
242415,226509,
242432,226492,
242416,226508,
242411,226483,
242461,226531,
242540,226531,
242611,226597,
242650,226585,
242719,226635,
242753,226610,
242772,226660,
242779,226635,
242757,226641,
242752,226592,
242723,226616,
242692,226559,
242655,226599,
242678,226569,
242708,226611,
242730,226578,
242791,226652,
242834,226632,
242957,226715,
243031,226713,
243169,226804,
243271,226809,
243417,226906,
243520,226921,
243658,226999,
243761,227005,
243892,227096,
243980,227082,
244076,227184,
244130,227159,
244226,227241,
244287,227222,
244360,227298,
244391,227278,
244477,227349,
244505,227318,
244564,227382,
244599,227354,
244671,227441,
244699,227402,
244770,227470,
244823,227444,
244880,227512,
244920,227485,
245020,227559,
245057,227537,
245148,227613,
245178,227604,
245260,227673,
245286,227640,
245386,227722,
245402,227697,
245504,227768,
245513,227732,
245629,227811,
245645,227786,
245734,227884,
245715,227826,
245811,227917,
245807,227866,
245883,227930,
245869,227871,
245923,227956,
245900,227893,
245975,227979,
245969,227920,
246070,228007,
246051,227955,
246137,228051,
246132,228001,
246240,228081,
246218,228039,
246312,228116,
246282,228051,
246273,228089,
246056,227944,
245735,227814,
245071,227456,
244345,227173,
243475,226761,
242756,226530,
242167,226260,
241917,226220,
241696,226089,
241662,226126,
241616,226077,
241776,226182,
241830,226158,
242032,226324,
242183,226334,
242423,226473,
242546,226505,
242800,226624,
242889,226612,
243039,226737,
243054,226691,
243150,226767,
243096,226701,
243145,226767,
243076,226689,
243161,226771,
243170,226740,
243299,226812,
243306,226783,
243432,226899,
243397,226829,
243488,226917,
243412,226818,
243456,226898,
243352,226797,
243387,226863,
243283,226753,
243306,226823,
243251,226743,
243292,226814,
243251,226754,
243349,226832,
243344,226794,
243464,226912,
243500,226861,
243670,226970,
243712,226937,
243888,227060,
243951,227040,
244105,227165,
244162,227135,
244341,227260,
244379,227219,
244525,227337,
244536,227282,
244674,227391,
244678,227334,
244800,227449,
244818,227381,
244904,227488,
244887,227424,
245021,227508,
244989,227457,
245110,227569,
245088,227495,
245187,227599,
245186,227526,
245284,227640,
245264,227572,
245391,227691,
245373,227605,
245487,227725,
245460,227660,
245564,227748,
245544,227690,
245673,227812,
245655,227737,
245785,227842,
245761,227778,
245874,227875,
245844,227817,
245960,227931,
245925,227859,
246044,227957,
245991,227914,
246120,227991,
246086,227926,
246187,228031,
246158,227945,
246238,228046,
246191,227984,
246307,228071,
246275,228021,
246401,228100,
246357,228056,
246485,228164,
246461,228092,
246531,228166,
246421,228051,
246372,228046,
245959,227817,
245469,227624,
244633,227222,
243896,226955,
243036,226563,
242543,226411,
242112,226231,
242017,226215,
241877,226141,
241964,226208,
241956,226207,
242176,226324,
242272,226339,
242554,226506,
242684,226524,
243007,226663,
243104,226695,
243360,226802,
243422,226804,
243562,226904,
243548,226857,
243651,226917,
243609,226866,
243661,226921,
243650,226900,
243779,226978,
243800,226934,
243925,227042,
243897,227001,
244005,227063,
243928,227017,
244003,227065,
243905,226985,
243916,227012,
243822,226954,
243860,226993,
243740,226930,
243808,226960,
243738,226924,
243830,226994,
243809,226955,
243917,227015,
243932,226991,
244085,227100,
244138,227097,
244294,227166,
244362,227173,
244515,227279,
244598,227292,
244744,227378,
244789,227382,
244951,227469,
244967,227446,
245103,227524,
245129,227504,
245246,227576,
245263,227567,
245349,227619,
245355,227595,
245442,227674,
245426,227642,
245505,227696,
245496,227665,
245587,227728,
245578,227692,
245652,227760,
245660,227740,
245704,227775,
245722,227757,
245786,227804,
245774,227786,
245856,227841,
245839,227826,
245925,227862,
245930,227859,
246021,227907,
246007,227888,
246082,227939,
246098,227933,
246166,227974,
246164,227963,
246249,228012,
246244,228004,
246328,228043,
246298,228025,
246379,228057,
246377,228049,
246464,228102,
246461,228092,
246510,228119,
246527,228130,
246624,228165,
246611,228162,
246696,228198,
246697,228177,
246741,228203,
246620,228153,
246486,228057,
246055,227850,
245502,227598,
244729,227230,
243986,226926,
243207,226643,
242746,226452,
242374,226317,
242248,226295,
242163,226260,
242214,226290,
242239,226316,
242399,226376,
242530,226424,
242730,226519,
242891,226579,
243090,226658,
243201,226716,
243359,226766,
243422,226785,
243509,226841,
243503,226850,
243531,226824,
243521,226829,
243538,226842,
243560,226848,
243635,226878,
243644,226886,
243715,226888,
243710,226896,
243738,226905,
243715,226896,
243714,226882,
243648,226856,
243610,226840,
243555,226829,
243528,226796,
243465,226794,
243466,226782,
243473,226797,
243512,226793,
243566,226834,
243637,226841,
243683,226876,
243791,226916,
243852,226966,
243963,226990,
244046,227052,
244152,227065,
244230,227130,
244325,227133,
244402,227166,
244500,227198,
244556,227238,
244631,227253,
244679,227272,
244728,227288,
244778,227316,
244833,227322,
244863,227350,
244918,227359,
244942,227390,
244989,227373,
245002,227428,
245058,227411,
245085,227465,
245142,227460,
245167,227472,
245230,227472,
245266,227522,
245328,227514,
245354,227556,
245421,227540,
245462,227606,
245499,227593,
245530,227655,
245565,227638,
245621,227705,
245662,227663,
245708,227725,
245745,227712,
245781,227760,
245830,227745,
245905,227802,
245938,227778,
246018,227864,
246028,227836,
246103,227908,
246151,227872,
246232,227962,
246280,227926,
246351,227997,
246373,227975,
246393,228037,
246345,227952,
246209,227922,
245838,227698,
245295,227461,
244587,227127,
243861,226867,
243139,226541,
242681,226406,
242356,226240,
242225,226242,
242139,226176,
242206,226234,
242248,226226,
242396,226336,
242520,226342,
242722,226490,
242872,226499,
243078,226634,
243223,226631,
243377,226741,
243447,226725,
243534,226807,
243534,226750,
243582,226826,
243563,226745,
243606,226829,
243614,226790,
243721,226876,
243718,226824,
243818,226898,
243813,226860,
243874,226931,
243831,226850,
243872,226932,
243795,226837,
243792,226899,
243739,226819,
243741,226861,
243691,226789,
243732,226849,
243725,226798,
243784,226886,
243789,226839,
243883,226935,
243941,226916,
244072,227002,
244119,226983,
244263,227083,
244315,227055,
244442,227155,
244472,227121,
244629,227228,
244668,227203,
244829,227294,
244844,227269,
244958,227360,
245002,227334,
245106,227416,
245091,227375,
245199,227464,
245197,227423,
245283,227496,
245295,227458,
245379,227553,
245373,227488,
245470,227570,
245465,227527,
245558,227613,
245535,227566,
245638,227655,
245621,227608,
245750,227697,
245723,227650,
245839,227733,
245808,227675,
245919,227784,
245923,227728,
246026,227805,
246014,227761,
246102,227857,
246075,227816,
246195,227884,
246198,227818,
246314,227949,
246292,227894,
246396,227992,
246400,227933,
246534,228033,
246520,227999,
246619,228082,
246593,228013,
246666,228100,
246538,227981,
246381,227956,
245948,227683,
245422,227468,
244630,227078,
243959,226859,
243281,226526,
242870,226449,
242555,226265,
242487,226304,
242385,226214,
242491,226330,
242515,226279,
242729,226439,
242824,226419,
243073,226572,
243174,226553,
243380,226710,
243469,226680,
243657,226803,
243636,226747,
243759,226843,
243702,226768,
243758,226844,
243708,226768,
243778,226846,
243767,226789,
243879,226902,
243874,226829,
243959,226931,
243900,226855,
243968,226920,
243887,226828,
243894,226879,
243765,226792,
243775,226836,
243674,226728,
243710,226785,
243605,226700,
243678,226785,
243625,226714,
243727,226813,
243717,226774,
243850,226870,
243883,226835,
244029,226951,
244065,226905,
244240,227021,
244251,226988,
244416,227100,
244435,227069,
244573,227162,
244596,227122,
244727,227231,
244733,227169,
244831,227269,
244818,227209,
244912,227307,
244863,227250,
244976,227328,
244929,227261,
245030,227334,
244978,227277,
245050,227363,
244993,227293,
245123,227362,
245087,227320,
245192,227424,
245171,227372,
245285,227437,
245236,227375,
245349,227463,
245298,227434,
245416,227497,
245369,227447,
245486,227534,
245448,227490,
245586,227574,
245561,227533,
245693,227612,
245679,227606,
245824,227665,
245815,227641,
245957,227724,
245937,227675,
246004,227740,
245853,227642,
245664,227561,
245159,227293,
244618,227064,
243885,226732,
243285,226532,
242718,226275,
242458,226196,
242214,226078,
242187,226091,
242093,226034,
242196,226119,
242230,226108,
242432,226223,
242513,226240,
242742,226360,
242841,226367,
243019,226486,
243087,226485,
243233,226562,
243232,226517,
243330,226596,
243293,226549,
243343,226603,
243331,226571,
243426,226631,
243452,226603,
243561,226690,
243563,226648,
243657,226721,
243611,226669,
243654,226705,
243576,226640,
243558,226684,
243473,226595,
243479,226606,
243377,226560,
243394,226607,
243351,226547,
243415,226604,
243410,226582,
243520,226643,
243527,226637,
243669,226729,
243712,226711,
243886,226788,
243926,226801,
244086,226875,
244154,226884,
244306,226953,
244343,226970,
244482,227041,
244540,227041,
244641,227105,
244672,227114,
244769,227161,
244772,227151,
244878,227199,
244873,227183,
244953,227226,
244965,227212,
245065,227278,
245073,227266,
245152,227311,
245149,227308,
245267,227348,
245288,227366,
245361,227385,
245350,227383,
245420,227425,
245430,227415,
245508,227451,
245502,227444,
245609,227500,
245622,227518,
245752,227549,
245796,227580,
245911,227633,
245965,227657,
246093,227707,
246126,227735,
246237,227770,
246211,227759,
246214,227747,
245986,227617,
245611,227440,
244986,227133,
244304,226871,
243627,226564,
243109,226355,
242696,226231,
242497,226137,
242384,226107,
242405,226108,
242412,226136,
242541,226192,
242655,226263,
242877,226325,
243008,226406,
243214,226478,
243333,226517,
243456,226600,
243533,226613,
243604,226655,
243622,226648,
243641,226646,
243639,226655,
243682,226652,
243703,226678,
243784,226713,
243842,226744,
243912,226759,
243948,226779,
243981,226784,
243965,226792,
243951,226761,
243892,226763,
243861,226713,
243825,226722,
243814,226677,
243760,226697,
243782,226683,
243792,226700,
243829,226706,
243875,226741,
243962,226746,
244018,226815,
244120,226841,
244223,226881,
244347,226931,
244424,226969,
244527,227013,
244588,227054,
244694,227079,
244775,227123,
244881,227145,
244923,227187,
244982,227185,
245033,227246,
245090,227236,
245123,227267,
245162,227266,
245204,227304,
245258,227295,
245287,227326,
245323,227331,
245369,227372,
245395,227351,
245428,227399,
245468,227393,
245495,227434,
245534,227411,
245590,227473,
245641,227453,
245698,227525,
245752,227523,
245828,227587,
245918,227582,
245998,227662,
246073,227662,
246154,227739,
246210,227727,
246271,227764,
246199,227706,
246051,227661,
245656,227420,
245092,227194,
244383,226858,
243744,226619,
243151,226335,
242749,226235,
242498,226105,
242383,226081,
242320,226037,
242366,226103,
242410,226098,
242551,226214,
242667,226217,
242853,226321,
242962,226349,
243096,226447,
243199,226430,
243299,226516,
243322,226476,
243364,226541,
243346,226468,
243389,226545,
243380,226505,
243482,226583,
243507,226544,
243644,226659,
243683,226625,
243787,226702,
243795,226671,
243843,226733,
243808,226658,
243817,226704,
243757,226648,
243782,226682,
243697,226603,
243717,226645,
243673,226597,
243716,226652,
243719,226624,
243831,226704,
243845,226673,
243993,226756,
244032,226749,
244207,226880,
244281,226850,
244456,226989,
244531,226943,
244680,227056,
244751,227035,
244891,227145,
244946,227102,
245054,227203,
245101,227173,
245224,227290,
245240,227228,
245354,227320,
245342,227274,
245460,227385,
245461,227322,
245546,227409,
245555,227346,
245644,227435,
245629,227400,
245730,227491,
245713,227440,
245800,227509,
245801,227468,
245918,227542,
245903,227520,
246018,227606,
246046,227567,
246169,227675,
246183,227629,
246319,227748,
246347,227720,
246473,227832,
246500,227805,
246590,227851,
246500,227769,
246359,227736,
245936,227472,
245423,227274,
244647,226888,
244035,226674,
243358,226368,
243008,226280,
242669,226096,
242633,226150,
242568,226085,
242687,226191,
242719,226172,
242952,226325,
243075,226319,
243316,226489,
243427,226476,
243645,226610,
243699,226579,
243830,226680,
243802,226611,
243871,226691,
243803,226621,
243861,226689,
243808,226612,
243916,226704,
243926,226661,
244071,226770,
244088,226732,
244203,226840,
244188,226786,
244271,226869,
244199,226778,
244248,226840,
244137,226748,
244160,226800,
244056,226699,
244049,226766,
243990,226679,
244062,226767,
244009,226703,
244124,226795,
244115,226734,
244261,226847,
244279,226785,
244442,226920,
244480,226889,
244638,227023,
244695,226980,
244871,227122,
244901,227075,
245076,227200,
245104,227163,
245239,227270,
245261,227225,
245382,227343,
245367,227279,
245497,227378,
245494,227334,
245616,227427,
245607,227374,
245731,227491,
245710,227418,
245827,227515,
245782,227460,
245919,227553,
245889,227509,
245988,227587,
245965,227541,
246075,227633,
246043,227571,
246163,227651,
246142,227606,
246253,227716,
246261,227655,
246399,227770,
246386,227732,
246530,227831,
246524,227799,
246665,227895,
246628,227842,
246703,227898,
246545,227797,
246367,227697,
245798,227401,
245198,227139,
244335,226734,
243706,226517,
243069,226234,
242759,226140,
242489,226021,
242451,226043,
242389,225984,
242508,226076,
242557,226083,
242754,226199,
242835,226205,
243056,226346,
243138,226341,
243321,226443,
243332,226422,
243455,226486,
243424,226446,
243494,226504,
243408,226436,
243477,226482,
243434,226467,
243534,226527,
243549,226514,
243705,226608,
243739,226583,
243842,226656,
243822,226618,
243887,226684,
243817,226613,
243830,226651,
243710,226564,
243678,226564,
243575,226511,
243592,226534,
243487,226490,
243551,226519,
243515,226486,
243600,226546,
243604,226533,
243721,226598,
243754,226608,
243890,226673,
243928,226672,
244065,226750,
244099,226749,
244243,226835,
244273,226812,
244403,226890,
244416,226861,
244506,226944,
244515,226918,
244628,226983,
244590,226952,
244666,227004,
244654,226969,
244707,227040,
244696,227003,
244784,227051,
244734,227014,
244811,227069,
244781,227028,
244843,227070,
244796,227038,
244853,227074,
244825,227054,
244876,227088,
244847,227073,
244900,227103,
244907,227089,
245000,227141,
244995,227131,
245108,227185,
245116,227180,
245238,227249,
245282,227261,
245374,227312,
245368,227316,
245444,227328,
245308,227254,
245046,227136,
244520,226882,
243939,226605,
243198,226300,
242642,226089,
242192,225869,
241923,225760,
241699,225658,
241654,225643,
241570,225612,
241631,225634,
241613,225634,
241727,225702,
241750,225709,
241875,225750,
241914,225779,
241993,225816,
241993,225819,
242040,225821,
241987,225805,
242018,225809,
241967,225780,
241969,225772,
241949,225773,
242016,225796,
242047,225827,
242149,225855,
242180,225876,
242282,225927,
242300,225926,
242355,225929,
242305,225917,
242297,225913,
242252,225909,
242242,225871,
242184,225873,
242181,225855,
242177,225859,
242201,225864,
242189,225872,
242260,225883,
242294,225912,
242350,225936,
242411,225973,
242506,226011,
242583,226029,
242693,226076,
242776,226125,
242870,226144,
242938,226198,
243040,226218,
243105,226255,
243179,226261,
243224,226329,
243315,226333,
243331,226340,
243396,226349,
243423,226400,
243486,226382,
243506,226422,
243545,226427,
243577,226452,
243619,226453,
243654,226484,
243710,226484,
243751,226524,
243788,226528,
243832,226551,
243886,226566,
243929,226603,
243979,226586,
244024,226646,
244077,226635,
244116,226696,
244192,226679,
244212,226730,
244291,226711,
244366,226788,
244440,226778,
244512,226853,
244580,226840,
244674,226927,
244745,226925,
244838,226995,
244852,226965,
244837,226976,
244632,226842,
244224,226669,
243615,226356,
242911,226092,
242269,225781,
241816,225630,
241484,225438,
241283,225386,
241149,225275,
241081,225275,
241070,225240,
241110,225304,
241172,225281,
241271,225373,
241348,225372,
241446,225454,
241482,225425,
241551,225504,
241570,225463,
241587,225506,
241550,225460,
241558,225493,
241518,225421,
241555,225475,
241562,225438,
241633,225534,
241672,225514,
241791,225597,
241839,225573,
241920,225662,
241926,225605,
241997,225680,
241953,225607,
241964,225654,
241892,225579,
241908,225608,
241825,225551,
241851,225612,
241826,225535,
241872,225626,
241881,225568,
241964,225675,
241992,225613,
242082,225713,
242118,225677,
242266,225795,
242326,225776,
242482,225887,
242528,225867,
242700,225967,
242761,225955,
242910,226062,
242930,226033,
243039,226120,
243070,226092,
243172,226174,
243180,226133,
243293,226225,
243296,226170,
243358,226255,
243358,226203,
243447,226299,
243441,226232,
243502,226313,
243489,226277,
243564,226331,
243570,226289,
243686,226387,
243656,226335,
243766,226416,
243767,226374,
243849,226467,
243855,226420,
243956,226515,
243943,226446,
244055,226536,
244037,226492,
244143,226585,
244136,226542,
244262,226624,
244265,226584,
244385,226674,
244408,226641,
244527,226738,
244547,226709,
244667,226817,
244647,226745,
244663,226785,
244403,226605,
244038,226487,
243396,226129,
242732,225879,
242005,225534,
241590,225382,
241207,225180,
241031,225137,
240855,225015,
240814,225054,
240760,224981,
240833,225045,
240851,225021,
240981,225128,
241005,225088,
241147,225209,
241168,225163,
241294,225263,
241270,225203,
241319,225288,
241259,225199,
241295,225261,
241194,225154,
241257,225232,
241186,225162,
241303,225255,
241278,225214,
241413,225319,
241407,225261,
241516,225370,
241481,225292,
241564,225381,
241489,225302,
241506,225355,
241409,225243,
241434,225309,
241345,225219,
241389,225292,
241314,225194,
241375,225289,
241327,225224,
241451,225306,
241435,225238,
241563,225351,
241572,225316,
241732,225428,
241717,225392,
241874,225495,
241899,225452,
242016,225572,
242023,225528,
242144,225627,
242166,225579,
242298,225676,
242280,225641,
242419,225737,
242396,225689,
242550,225787,
242508,225726,
242620,225815,
242609,225779,
242722,225863,
242688,225812,
242824,225906,
242802,225852,
242933,225941,
242919,225910,
243070,225996,
243044,225965,
243162,226045,
243158,226013,
243303,226094,
243295,226069,
243436,226157,
243414,226115,
243563,226209,
243554,226180,
243702,226264,
243694,226233,
243854,226339,
243873,226319,
244040,226403,
244066,226399,
244249,226491,
244271,226491,
244434,226576,
244426,226553,
244567,226626,
244465,226560,
244364,226510,
243921,226250,
243360,226025,
242549,225630,
241916,225396,
241363,225123,
241097,225027,
240833,224886,
240746,224884,
240611,224796,
240635,224864,
240645,224802,
240743,224894,
240787,224890,
240943,224991,
240994,224992,
241159,225061,
241175,225048,
241272,225123,
241232,225088,
241299,225138,
241230,225079,
241277,225109,
241216,225081,
241293,225122,
241287,225095,
241411,225170,
241454,225178,
241576,225259,
241579,225239,
241662,225298,
241627,225255,
241669,225283,
241585,225222,
241598,225248,
241510,225186,
241506,225211,
241443,225167,
241468,225201,
241449,225169,
241509,225205,
241516,225189,
241605,225247,
241635,225259,
241767,225326,
241832,225332,
241994,225410,
242042,225441,
242188,225485,
242255,225532,
242395,225601,
242431,225615,
242554,225650,
242613,225685,
242722,225713,
242743,225734,
242853,225782,
242881,225795,
242966,225827,
242969,225827,
243019,225843,
243025,225859,
243099,225876,
243077,225858,
243134,225872,
243128,225873,
243207,225916,
243210,225898,
243272,225931,
243279,225954,
243355,225980,
243372,225989,
243466,226012,
243459,226008,
243544,226049,
243587,226065,
243641,226092,
243653,226099,
243744,226129,
243796,226161,
243889,226190,
243927,226223,
244032,226248,
244088,226292,
244182,226340,
244246,226368,
244351,226413,
244400,226437,
244423,226405,
244279,226363,
243962,226169,
243406,225919,
242671,225583,
241973,225298,
241443,225049,
241063,224916,
240839,224779,
240676,224715,
240602,224677,
240567,224673,
240589,224672,
240657,224716,
240755,224754,
240834,224818,
240943,224843,
241020,224910,
241124,224911,
241175,224956,
241208,224947,
241212,224985,
241206,224954,
241197,224978,
241214,224950,
241230,224995,
241286,224994,
241361,225040,
241439,225070,
241563,225139,
241633,225169,
241692,225214,
241758,225205,
241772,225239,
241749,225200,
241738,225221,
241673,225163,
241681,225201,
241628,225155,
241645,225195,
241651,225151,
241700,225226,
241728,225192,
241806,225271,
241853,225249,
241962,225346,
242040,225357,
242170,225443,
242255,225438,
242377,225516,
242447,225513,
242545,225593,
242607,225581,
242704,225667,
242772,225650,
242868,225725,
242899,225706,
243000,225773,
243023,225736,
243109,225829,
243124,225777,
243194,225853,
243230,225827,
243306,225913,
243301,225880,
243403,225967,
243412,225912,
243520,226006,
243536,225950,
243625,226048,
243664,226017,
243758,226104,
243769,226077,
243879,226154,
243889,226125,
243980,226206,
243969,226167,
244083,226239,
244089,226214,
244184,226302,
244240,226274,
244337,226350,
244392,226333,
244501,226445,
244546,226411,
244711,226516,
244736,226497,
244871,226601,
244907,226571,
244928,226608,
244726,226478,
244398,226314,
243750,225954,
243019,225691,
242194,225295,
241693,225134,
241241,224900,
241054,224833,
240855,224717,
240846,224777,
240782,224683,
240868,224782,
240892,224738,
241033,224863,
241094,224855,
241287,224978,
241349,224977,
241516,225076,
241542,225063,
241663,225147,
241613,225094,
241692,225157,
241629,225078,
241695,225173,
241673,225099,
241800,225227,
241836,225180,
241990,225289,
242007,225268,
242118,225366,
242105,225300,
242186,225365,
242100,225294,
COM4 disconnected!
