221730,201855,
221662,201830,
221781,201891,
221692,201840,
221827,201904,
221719,201843,
221822,201886,
221739,201851,
221854,201917,
221771,201860,
221890,201919,
221795,201869,
221899,201927,
221813,201882,
221906,201922,
221845,201892,
221910,201939,
221833,201888,
221903,201932,
221817,201873,
221870,201917,
221810,201865,
221878,201928,
221808,201878,
221881,201934,
221824,201879,
221907,201927,
221839,201886,
221916,201941,
221870,201894,
221947,201923,
221880,201892,
221984,201929,
221903,201906,
221990,201954,
221924,201912,
221993,201944,
221934,201910,
222016,201955,
221939,201922,
222008,201953,
221961,201926,
222023,201965,
221951,201936,
222023,201962,
221970,201927,
222029,201960,
221975,201917,
222012,201953,
221959,201920,
222038,201973,
221964,201922,
222038,201953,
221992,201942,
222039,201963,
222008,201945,
222065,201960,
222008,201955,
222070,201970,
221990,201953,
222071,201966,
222001,201938,
222028,201953,
221916,201898,
221875,201838,
221672,201762,
221588,201689,
221390,201615,
221357,201582,
221259,201531,
221282,201548,
221269,201548,
221357,201603,
221359,201619,
221460,201625,
221473,201646,
221554,201701,
221575,201700,
221631,201722,
221606,201726,
221667,201734,
221650,201737,
221699,201768,
221676,201768,
221714,201765,
221719,201768,
221746,201761,
221768,201797,
221784,201776,
221769,201805,
221822,201800,
221796,201806,
221813,201810,
221784,201813,
221800,201794,
221781,201806,
221788,201781,
221773,201791,
221778,201787,
221758,201805,
221785,201786,
221736,201790,
221789,201770,
221792,201789,
221816,201802,
221812,201817,
221854,201800,
221838,201811,
221857,201813,
221880,201812,
221880,201815,
221898,201847,
221918,201826,
221918,201861,
221932,201825,
221937,201858,
221928,201840,
221953,201883,
221927,201830,
221951,201878,
221966,201832,
221962,201886,
221949,201842,
221982,201885,
221958,201837,
221992,201904,
221966,201850,
222024,201913,
221975,201877,
222043,201923,
221998,201861,
222021,201923,
221982,201858,
222034,201908,
222017,201853,
222039,201904,
222013,201852,
222035,201923,
222032,201856,
222071,201918,
222023,201849,
222060,201917,
222025,201863,
222062,201918,
222036,201871,
222082,201928,
221988,201830,
221972,201849,
221779,201706,
221661,201677,
221375,201496,
221227,201450,
220969,201311,
220918,201302,
220767,201215,
220851,201301,
220844,201245,
220988,201375,
220995,201343,
221174,201461,
221175,201422,
221320,201533,
221289,201478,
221398,201581,
221348,201503,
221455,201591,
221395,201528,
221497,201608,
221425,201552,
221535,201630,
221479,201566,
221582,201651,
221527,201594,
221631,201680,
221589,201607,
221654,201678,
221586,201613,
221672,201692,
221591,201609,
221678,201677,
221551,201599,
221650,201660,
221548,201578,
221642,201669,
221555,201594,
221664,201667,
221586,201626,
221691,201688,
221593,201619,
221722,201702,
221656,201634,
221783,201724,
221686,201661,
221810,201743,
221724,201683,
221857,201775,
221755,201679,
221889,201774,
221791,201695,
221901,201777,
221808,201704,
221914,201794,
221826,201706,
221929,201764,
221825,201714,
221916,201783,
221848,201713,
221958,201781,
221848,201709,
221957,201773,
221866,201711,
221958,201783,
221869,201716,
221953,201793,
221887,201718,
221977,201800,
221906,201728,
221995,201802,
221916,201728,
222020,201807,
221908,201736,
222030,201794,
221929,201731,
222045,201809,
221942,201735,
222061,201822,
221979,201748,
222076,201836,
221972,201749,
222080,201838,
221996,201755,
222109,201835,
221992,201728,
222067,201801,
221901,201689,
221889,201700,
221606,201497,
221461,201482,
221112,201239,
220927,201196,
220542,201000,
220476,201013,
220328,200922,
220478,201045,
220498,201017,
220732,201144,
220755,201135,
220967,201277,
220944,201252,
221148,201352,
221076,201300,
221226,201409,
221151,201346,
221284,201422,
221190,201360,
221310,201454,
221249,201396,
221394,201467,
221326,201421,
221464,201532,
221379,201452,
221541,201539,
221450,201493,
221606,201571,
221481,201508,
221609,201571,
221483,201515,
221593,201561,
221478,201514,
221572,201550,
221460,201487,
221572,201537,
221476,201494,
221605,201531,
221489,201507,
221617,201561,
221538,201507,
221659,201582,
221612,201554,
221726,201606,
221648,201567,
221779,201627,
221699,201576,
221816,201648,
221746,201604,
221861,201651,
221771,201607,
221876,201661,
221794,201633,
221898,201665,
221839,201647,
221908,201678,
221853,201628,
221935,201673,
221874,201647,
221959,201701,
221881,201649,
221972,201707,
221914,201645,
221978,201699,
221911,201667,
221980,201706,
221923,201673,
221999,201716,
221930,201666,
222009,201706,
221948,201671,
222031,201709,
221979,201688,
222042,201718,
221988,201692,
222054,201719,
222008,201687,
222067,201731,
221996,201699,
222056,201710,
222006,201703,
222105,201725,
222037,201717,
222104,201752,
222052,201712,
222115,201737,
222061,201725,
222114,201739,
222058,201722,
222107,201731,
222010,201681,
221960,201643,
221750,201537,
221614,201452,
221324,201308,
221137,201204,
220838,201079,
220716,201015,
220582,200997,
220655,201005,
220703,201054,
220876,201118,
220949,201172,
221079,201238,
221135,201267,
221240,201292,
221255,201308,
221306,201334,
221327,201349,
221387,201365,
221390,201371,
221426,201384,
221411,201389,
221452,201396,
221480,201418,
221506,201414,
221538,201444,
221573,201435,
221581,201478,
221628,201462,
221628,201487,
221639,201475,
221609,201479,
221634,201442,
221615,201464,
221637,201468,
221607,201467,
221629,201451,
221625,201485,
221639,201456,
221647,201476,
221678,201467,
221672,201507,
221726,201477,
221737,201517,
221741,201504,
221773,201532,
221802,201516,
221811,201552,
221826,201528,
221840,201576,
221852,201528,
221863,201592,
221881,201558,
221891,201596,
221884,201553,
221922,201606,
221935,201553,
221933,201606,
221934,201564,
221954,201636,
221941,201568,
221967,201624,
221930,201578,
221986,201624,
221947,201571,
221986,201626,
221979,201570,
222001,201638,
221975,201576,
222014,201639,
221978,201579,
222011,201643,
221980,201590,
222040,201627,
221997,201597,
222028,201657,
222006,201581,
222051,201636,
222020,201607,
222067,201644,
222008,201591,
222090,201652,
222031,201585,
222070,201642,
222037,201583,
222094,201662,
222030,201591,
222118,201660,
222055,201593,
222127,201660,
222067,201600,
222121,201676,
222052,201592,
222138,201657,
222067,201580,
222124,201669,
222001,201542,
222007,201582,
221797,201418,
221706,201410,
221440,201238,
221359,201213,
221130,201068,
221133,201115,
221016,201061,
221134,201142,
221115,201088,
221283,201217,
221293,201195,
221449,201286,
221420,201253,
221556,201354,
221512,201289,
221638,201394,
221569,201315,
221675,201408,
221584,201339,
221683,201429,
221588,201347,
221700,201438,
221632,201367,
221746,201456,
221683,201384,
221796,201458,
221700,201382,
221822,201484,
221729,201406,
221841,201495,
221726,201402,
221836,201480,
221710,201398,
221793,201465,
221687,201391,
221778,201457,
221707,201379,
221805,201458,
221720,201388,
221824,201468,
221759,201415,
221856,201475,
221793,201413,
221887,201504,
221802,201432,
221955,201511,
221849,201441,
221969,201528,
221875,201433,
221993,201530,
221886,201460,
222005,201540,
221909,201462,
222029,201549,
221920,201460,
222039,201549,
221936,201476,
222051,201552,
221937,201455,
222058,201559,
221945,201457,
222048,201542,
221946,201471,
222049,201552,
221957,201472,
222070,201561,
221974,201470,
222076,201548,
221964,201468,
222085,201554,
221981,201469,
222094,201545,
221979,201460,
222109,201570,
222010,201479,
222110,201570,
222006,201483,
222119,201561,
222013,201483,
222132,201565,
222014,201500,
222146,201555,
222037,201489,
222136,201556,
222037,201499,
222147,201557,
222036,201502,
222159,201570,
222044,201523,
222177,201576,
222067,201526,
222198,201575,
222076,201518,
222179,201571,
222062,201512,
222150,201543,
221994,201478,
222025,201471,
221775,201350,
221727,201332,
221487,201197,
221461,201169,
221273,201084,
221336,201130,
221262,201090,
221404,201170,
221371,201159,
221536,201243,
221517,201213,
221655,201299,
221614,201277,
221723,201328,
221696,201292,
221797,201362,
221722,201317,
221815,201373,
221740,201340,
221826,201382,
221758,201358,
221832,201387,
221788,201362,
221859,201418,
221828,201361,
221900,201416,
221850,201395,
221939,201416,
221851,201394,
221927,201423,
221837,201384,
221905,201406,
221829,201368,
221867,201390,
221805,201354,
221882,201391,
221809,201352,
221881,201382,
221825,201367,
221897,201392,
221854,201375,
221934,201423,
221889,201387,
221982,201430,
221905,201411,
221995,201428,
221961,201417,
222022,201460,
221981,201448,
222055,201463,
222002,201467,
222060,201470,
222009,201462,
222065,201453,
222017,201456,
222075,201469,
222022,201460,
222081,201471,
222021,201463,
222084,201475,
222029,201456,
222075,201463,
222036,201464,
222098,201470,
222036,201453,
222096,201454,
222059,201455,
222102,201455,
222066,201464,
222098,201466,
222087,201459,
222116,201451,
222092,201464,
222131,201464,
222110,201469,
222123,201469,
222117,201472,
222132,201475,
222123,201491,
222139,201474,
222139,201493,
222155,201487,
222142,201480,
222165,201465,
222155,201487,
222159,201465,
222137,201496,
222168,201477,
222150,201495,
222179,201471,
222170,201483,
222184,201472,
222162,201474,
222158,201466,
222156,201482,
222143,201447,
222105,201437,
222030,201384,
221901,201327,
221764,201228,
221630,201174,
221501,201091,
221412,201062,
221353,201008,
221347,201060,
221375,201051,
221454,201123,
221484,201109,
221568,201191,
221600,201166,
221671,201255,
221676,201217,
221730,201281,
221741,201234,
221784,201311,
221769,201259,
221825,201304,
221795,201253,
221833,201313,
221800,201265,
221834,201315,
221816,201276,
221877,201337,
221866,201299,
221906,201355,
221881,201292,
221925,201358,
221884,201299,
221923,201344,
221864,201293,
221910,201341,
221849,201284,
221916,201322,
221842,201264,
221895,201344,
221844,201277,
221923,201339,
221857,201274,
221959,201356,
221867,201278,
221971,201374,
221913,201284,
222019,201371,
221956,201318,
222035,201389,
221973,201316,
222058,201399,
221993,201328,
222067,201416,
222012,201323,
222084,201423,
222024,201340,
222109,201419,
222027,201352,
222108,201424,
222026,201342,
222118,201432,
222048,201355,
222141,201417,
222057,201350,
222152,201451,
222069,201360,
222144,201446,
222055,201363,
222162,201429,
222083,201362,
222176,201444,
222080,201370,
222177,201466,
222086,201379,
222187,201461,
222095,201380,
222203,201459,
222102,201392,
222206,201471,
222109,201376,
222194,201454,
222122,201382,
222224,201461,
222139,201395,
222227,201474,
222133,201404,
222242,201478,
222165,201409,
222247,201481,
222162,201398,
222268,201485,
222178,201404,
222291,201491,
222174,201410,
222303,201494,
222220,201413,
222293,201498,
222213,201410,
222309,201497,
222183,201400,
222268,201468,
222110,201339,
222110,201360,
221843,201200,
221779,201205,
221475,201003,
221396,200989,
221125,200826,
221152,200895,
221039,200828,
221192,200931,
221206,200911,
221377,201036,
221376,200983,
221547,201116,
221517,201060,
221664,201171,
221590,201107,
221743,201202,
221642,201129,
221771,201220,
221669,201150,
221801,201205,
221705,201156,
221838,201233,
221746,201165,
221875,201258,
221774,201200,
221903,201276,
221820,201217,
221929,201289,
221835,201224,
221937,201285,
221828,201222,
221945,201272,
221840,201213,
221934,201275,
221808,201213,
221912,201259,
221788,201202,
221918,201267,
221803,201230,
221930,201291,
221867,201219,
221987,201277,
221895,201246,
222020,201307,
221935,201246,
222056,201317,
221975,201275,
222074,201325,
222006,201291,
222114,201340,
222025,201300,
222125,201339,
222058,201311,
222130,201353,
222076,201304,
222162,201355,
222085,201318,
222160,201362,
222100,201321,
222159,201371,
222099,201319,
222185,201372,
222101,201326,
222166,201357,
222120,201315,
222174,201368,
222112,201311,
222189,201354,
222110,201315,
222184,201349,
222132,201312,
222199,201350,
222144,201316,
222208,201354,
222135,201298,
222222,201357,
222163,201312,
222225,201343,
222161,201315,
222226,201364,
222187,201326,
222230,201352,
222186,201338,
222260,201352,
222194,201335,
222264,201376,
222212,201347,
222277,201359,
222204,201342,
222274,201356,
222211,201348,
222278,201364,
222215,201351,
222281,201348,
222224,201356,
222288,201355,
222235,201353,
222291,201363,
222246,201359,
222278,201354,
222230,201335,
222222,201323,
222106,201275,
222053,201215,
221863,201147,
221780,201063,
221640,201008,
221601,200968,
221534,200952,
221570,200978,
221555,200996,
221629,201006,
221660,201037,
221743,201057,
221750,201095,
221823,201087,
221844,201117,
221883,201122,
221888,201142,
221940,201149,
221941,201175,
221955,201165,
221953,201162,
221958,201169,
221968,201201,
221976,201170,
221963,201192,
222005,201170,
221984,201208,
222005,201176,
222007,201210,
222002,201184,
222003,201209,
222012,201183,
222017,201209,
222004,201176,
222018,201208,
221992,201169,
221973,201193,
221982,201146,
221990,201201,
221991,201167,
222012,201204,
222006,201175,
222034,201213,
222025,201158,
222046,201221,
222050,201189,
222075,201239,
222064,201189,
222115,201245,
222090,201192,
222132,201268,
222094,201212,
222151,201272,
222105,201219,
222159,201268,
222110,201213,
222158,201275,
222132,201212,
222154,201257,
222127,201202,
222181,201269,
222128,201206,
222199,201272,
222123,201200,
222199,201280,
222161,201206,
222207,201275,
222147,201205,
222206,201267,
222154,201203,
222232,201274,
222176,201215,
222240,201298,
222173,201224,
222256,201298,
222170,201222,
222259,201298,
222195,201224,
222290,201291,
222190,201213,
222277,201307,
222199,201217,
222281,201294,
222228,201220,
222289,201304,
222213,201230,
222296,201314,
222232,201238,
222311,201306,
222224,201237,
222311,201319,
222229,201256,
222322,201299,
222236,201231,
222324,201319,
222237,201255,
222340,201307,
222239,201232,
222353,201300,
222243,201231,
222344,201312,
222236,201248,
222323,201303,
222196,201202,
222238,201247,
222001,201106,
221980,201116,
221723,200952,
221720,200955,
221517,200829,
221556,200907,
221432,200807,
221553,200912,
221508,200853,
221667,200977,
221601,200900,
221760,201014,
221709,200959,
221840,201049,
221763,200995,
221914,201100,
221814,201019,
221923,201107,
221846,201030,
221942,201119,
221841,201015,
221956,201101,
221847,201029,
221956,201103,
221870,201036,
221991,201118,
221909,201041,
222006,201130,
221930,201055,
222039,201145,
221932,201065,
222048,201152,
221925,201068,
222027,201156,
221931,201065,
222042,201150,
221919,201060,
222036,201153,
221919,201070,
222043,201153,
221955,201069,
222055,201168,
221976,201092,
222079,201175,
221999,201084,
222106,201177,
222012,201115,
222136,201207,
222028,201134,
222169,201207,
222053,201130,
222188,201210,
222070,201127,
222196,201224,
222088,201154,
222216,201216,
222110,201152,
222241,201249,
222122,201175,
222246,201221,
222127,201167,
222254,201231,
222128,201180,
222272,201244,
222145,201162,
222273,201237,
222112,201185,
222251,201236,
222134,201187,
222270,201249,
222150,201188,
222262,201246,
222169,201184,
222289,201233,
222156,201195,
222272,201256,
222178,201199,
222288,201252,
222198,201198,
222313,201235,
222215,201217,
222319,201256,
222217,201218,
222325,201264,
222230,201206,
222331,201262,
222238,201230,
222344,201284,
222263,201217,
222352,201272,
222274,201218,
222350,201253,
222281,201221,
222367,201285,
222288,201219,
222386,201278,
222294,201255,
222397,201278,
222330,201231,
222389,201284,
222318,201229,
222353,201269,
222233,201177,
222205,201161,
222026,201059,
221930,201020,
221750,200911,
221690,200879,
221528,200806,
221522,200810,
221445,200779,
221525,200829,
221521,200821,
221652,200891,
221623,200905,
221769,200940,
221738,200946,
221845,201001,
221814,200988,
221897,201025,
221867,201010,
221937,201039,
221888,201021,
221936,201041,
221875,201038,
221953,201057,
221897,201029,
221962,201062,
221915,201071,
221988,201066,
221946,201070,
222019,201074,
221958,201078,
222032,201088,
221996,201074,
222010,201077,
221978,201072,
222028,201073,
221973,201071,
222013,201062,
221971,201055,
222017,201075,
221987,201075,
222038,201083,
222008,201072,
222068,201086,
222047,201096,
222068,201097,
222087,201113,
222128,201105,
222114,201112,
222144,201124,
222142,201147,
222176,201141,
222164,201151,
222180,201147,
222170,201165,
222197,201152,
222212,201159,
222211,201143,
222216,201170,
222221,201139,
222224,201171,
222255,201140,
222231,201166,
222242,201144,
222237,201184,
222258,201158,
222250,201189,
222268,201157,
222245,201198,
222273,201175,
222258,201200,
222264,201172,
222261,201200,
222279,201172,
222289,201199,
222287,201190,
222314,201211,
222308,201173,
222325,201218,
222321,201175,
222348,201233,
222321,201192,
222349,201236,
222336,201194,
222362,201249,
222345,201194,
222385,201256,
222350,201201,
222390,201251,
222352,201190,
222376,201264,
222364,201195,
222391,201248,
222366,201204,
222399,201253,
222366,201196,
222409,201257,
222360,201196,
222414,201249,
222381,201208,
222424,201247,
222388,201190,
222427,201265,
222347,201188,
222362,201212,
222170,201081,
222087,201071,
221878,200913,
221769,200889,
221480,200711,
221351,200674,
221124,200546,
221165,200605,
221123,200562,
221275,200655,
221294,200645,
221457,200763,
221438,200714,
221616,200853,
221589,200812,
221697,200900,
221673,200825,
221773,200918,
221735,200854,
221798,200943,
221721,200873,
221807,200934,
221742,200868,
221842,200954,
221771,200894,
221868,200964,
221804,200911,
221916,200985,
221830,200918,
221945,200990,
221873,200933,
221957,201020,
221870,200938,
221969,200996,
221860,200938,
221981,201005,
221871,200921,
221962,201005,
221879,200947,
221986,201008,
221914,200943,
221992,201014,
221944,200956,
222055,201041,
221962,200967,
222090,201060,
222005,200978,
222121,201081,
222038,200993,
222144,201091,
222056,201010,
222172,201080,
222087,201023,
222208,201095,
222105,201033,
222198,201104,
222118,201036,
222210,201117,
222140,201030,
222224,201100,
222154,201032,
222248,201119,
222171,201031,
222253,201118,
222156,201026,
222256,201117,
222173,201036,
222268,201116,
222173,201050,
222271,201111,
222188,201042,
222305,201121,
222195,201033,
222313,201122,
222216,201053,
222327,201133,
222217,201048,
222324,201126,
222218,201028,
222325,201150,
222229,201046,
222342,201142,
222249,201064,
222344,201123,
222269,201057,
222347,201149,
222253,201060,
222357,201146,
222282,201058,
222385,201141,
222278,201054,
222379,201131,
222267,201061,
222400,201143,
222276,201075,
222387,201133,
222297,201082,
222413,201145,
222299,201081,
222425,201138,
222301,201082,
222414,201140,
222313,201081,
222388,201135,
222234,201039,
222274,201062,
222021,200929,
222003,200892,
221769,200786,
221760,200785,
221562,200679,
221614,200705,
221500,200665,
221627,200710,
221554,200678,
221696,200757,
221633,200738,
221794,200813,
221737,200793,
221880,200836,
221810,200814,
221912,200868,
221855,200835,
221938,200879,
221861,200848,
221963,200886,
221866,200852,
221965,200890,
221885,200861,
221980,200886,
221907,200859,
221997,200910,
221965,200872,
222022,200930,
221968,200872,
222021,200927,
221976,200894,
222032,200928,
221966,200885,
222046,200897,
221978,200878,
222041,200908,
221971,200879,
222026,200929,
221988,200885,
222059,200918,
221986,200893,
222050,200926,
222005,200892,
222099,200928,
222048,200904,
222117,200948,
222073,200929,
222133,200972,
222115,200941,
222148,200957,
222111,200941,
222183,200984,
222119,200948,
222184,200990,
222127,200961,
222193,200992,
222152,200969,
222170,200971,
222141,200980,
222194,200982,
222150,200963,
222216,201002,
222153,200989,
222218,200983,
222155,200986,
222207,200984,
222161,200984,
222227,200990,
222181,200979,
222234,200991,
222193,200997,
222230,200990,
222203,200997,
222253,200990,
222208,200991,
222247,200998,
222226,201001,
222275,201001,
222246,201012,
222271,201004,
222245,201008,
222278,201012,
222266,201017,
222289,201000,
222267,201017,
222301,201001,
222275,201014,
222286,201010,
222280,201027,
222299,200997,
222298,201008,
222297,201002,
222315,201017,
222305,201005,
222290,201015,
222331,200997,
222319,201014,
222318,200996,
222330,201024,
222319,200990,
222311,201023,
222326,200990,
222289,200996,
222264,200958,
222190,200947,
222077,200855,
221949,200805,
221846,200719,
221763,200713,
221717,200651,
221690,200687,
221699,200661,
221747,200723,
221763,200702,
221819,200756,
221839,200731,
221899,200806,
221899,200769,
221957,200844,
221960,200796,
222009,200855,
221969,200814,
222009,200879,
221988,200801,
222013,200863,
222011,200809,
222019,200883,
221978,200831,
222034,200865,
221993,200815,
222046,200875,
222017,200826,
222050,200880,
222032,200837,
222086,200890,
222052,200836,
222092,200909,
222045,200828,
222097,200894,
222037,200846,
222122,200905,
222049,200826,
222103,200913,
222065,200843,
222128,200920,
222068,200843,
222146,200926,
222083,200861,
222180,200925,
222094,200856,
222199,200934,
222110,200865,
222205,200965,
222129,200879,
222203,200954,
222144,200880,
222215,200940,
222135,200869,
222226,200943,
222135,200866,
222220,200941,
222143,200888,
222232,200940,
222154,200871,
222220,200968,
222150,200883,
222228,200961,
222137,200893,
222245,200953,
222134,200880,
222250,200954,
222177,200884,
222253,200939,
222167,200900,
222262,200965,
222179,200909,
222258,200959,
222185,200889,
222292,200985,
222177,200902,
222293,200982,
222190,200907,
222311,200968,
222215,200896,
222311,200976,
222190,200912,
222297,200966,
222205,200902,
222309,200993,
222206,200899,
222304,200983,
222207,200905,
222326,200974,
222213,200914,
222336,200967,
222226,200916,
222339,200989,
222249,200931,
222339,201003,
222253,200913,
222346,200994,
222261,200908,
222343,201002,
222228,200893,
222282,200941,
222112,200830,
222109,200853,
221874,200720,
221887,200738,
221674,200602,
221751,200662,
221601,200567,
221727,200657,
221641,200600,
221770,200690,
221731,200634,
221872,200742,
221803,200668,
221931,200781,
221858,200711,
221993,200800,
221890,200727,
222009,200825,
221914,200729,
222012,200817,
221903,200726,
222014,200818,
221928,200748,
222028,200824,
221924,200747,
222057,200826,
221951,200771,
222064,200837,
221934,200775,
222072,200846,
221963,200774,
222049,200831,
221948,200747,
222044,200818,
221948,200769,
222057,200826,
221956,200768,
222054,200841,
221946,200778,
222064,200830,
221957,200768,
222092,200832,
221969,200791,
222104,200851,
221996,200795,
222110,200830,
222016,200806,
222137,200870,
222050,200813,
222155,200854,
222058,200813,
222164,200876,
222063,200823,
222175,200861,
222076,200823,
222185,200885,
222091,200833,
222199,200869,
222101,200832,
222197,200883,
222110,200833,
222192,200887,
222121,200837,
222207,200889,
222140,200842,
222230,200877,
222137,200836,
222224,200896,
222154,200841,
222225,200884,
222168,200851,
222230,200886,
222175,200834,
222241,200893,
222172,200842,
222250,200887,
222182,200845,
222248,200882,
222176,200843,
222262,200874,
222196,200851,
222263,200898,
222197,200855,
222268,200896,
222207,200860,
222276,200877,
222210,200862,
222268,200878,
222219,200851,
222280,200898,
222241,200880,
222297,200897,
222238,200877,
222305,200889,
222239,200875,
222308,200910,
222236,200895,
222327,200900,
222248,200887,
222329,200895,
222232,200877,
222276,200871,
222176,200832,
222140,200803,
221988,200746,
221928,200693,
221767,200617,
221773,200605,
221686,200579,
221723,200599,
221696,200590,
221772,200619,
221770,200630,
221829,200658,
221855,200654,
221918,200694,
221901,200692,
221974,200719,
221949,200728,
222013,200736,
221981,200726,
222010,200736,
221996,200748,
222029,200723,
221992,200729,
222011,200729,
221996,200752,
222022,200729,
222003,200750,
222042,200738,
222036,200758,
222056,200750,
222033,200751,
222047,200732,
222046,200758,
222048,200745,
222023,200759,
222052,200735,
222033,200752,
222037,200740,
222009,200754,
222050,200729,
222031,200751,
222067,200741,
222047,200763,
222070,200729,
222062,200761,
222084,200755,
222086,200770,
222094,200750,
222105,200778,
222113,200761,
222128,200807,
222120,200756,
222146,200794,
222131,200752,
222142,200807,
222133,200761,
222165,200827,
222150,200779,
222187,200815,
222140,200765,
222180,200829,
222153,200781,
222206,200830,
222160,200790,
222198,200840,
222179,200794,
222220,200838,
222165,200767,
222204,200828,
222177,200781,
222211,200829,
222175,200781,
222207,200841,
222181,200765,
222225,200846,
222179,200766,
222236,200829,
222196,200772,
222232,200834,
222192,200779,
222234,200830,
222195,200777,
222261,200831,
222210,200773,
222266,200851,
222218,200761,
222276,200848,
222202,200776,
222293,200846,
222211,200780,
222306,200837,
222215,200779,
222290,200851,
222228,200772,
222302,200859,
222233,200772,
222308,200846,
222254,200760,
222297,200826,
222199,200736,
222217,200794,
222081,200688,
222064,200714,
221920,200605,
221918,200628,
221782,200542,
221870,200598,
221773,200524,
221879,200628,
221828,200561,
221934,200664,
221896,200580,
222012,200674,
221943,200625,
222042,200705,
221969,200644,
222062,200702,
221986,200645,
222089,200725,
221993,200655,
222105,200723,
221988,200649,
222083,200722,
221999,200655,
222096,200736,
222013,200649,
222113,200726,
222016,200653,
222118,200737,
222017,200669,
222122,200720,
222019,200647,
222109,200727,
222018,200655,
222093,200727,
222019,200639,
222122,200722,
222029,200646,
222131,200711,
222025,200664,
222114,200709,
222039,200637,
222150,200725,
222058,200642,
222156,200726,
222079,200645,
222174,200739,
222084,200653,
222192,200753,
222096,200670,
222216,200736,
222113,200652,
222217,200750,
222104,200659,
222226,200755,
222125,200661,
222226,200740,
222144,200671,
222238,200748,
222136,200663,
222242,200760,
222143,200672,
222228,200749,
222146,200662,
222246,200748,
222142,200669,
222253,200740,
222154,200677,
222240,200758,
222145,200696,
222249,200773,
222170,200695,
222269,200777,
222183,200706,
222279,200770,
222177,200717,
222318,200783,
222193,200717,
222311,200779,
222213,200714,
222317,200791,
222218,200718,
222334,200788,
222231,200724,
222348,200802,
222226,200737,
222349,200796,
222221,200733,
222351,200799,
222237,200748,
222355,200791,
222242,200732,
222363,200788,
222252,200733,
222363,200781,
222230,200746,
222317,200769,
222183,200690,
222238,200711,
222058,200634,
222080,200644,
221920,200547,
221963,200587,
221843,200521,
221969,200570,
221877,200537,
222000,200592,
221912,200568,
222079,200631,
221998,200601,
222097,200654,
222039,200617,
222149,200663,
222075,200633,
222162,200689,
222083,200644,
222166,200675,
222074,200627,
222167,200687,
222093,200631,
222161,200663,
222096,200617,
222162,200678,
222090,200621,
222145,200685,
222100,200646,
222174,200674,
222111,200641,
222170,200665,
222109,200625,
222148,200662,
222077,200617,
222139,200664,
222087,200629,
222135,200644,
222081,200630,
222149,200660,
222095,200637,
222156,200671,
222108,200645,
222178,200676,
222142,200648,
222169,200667,
222124,200644,
222182,200654,
222137,200662,
222198,200684,
222148,200669,
222205,200671,
222162,200660,
222222,200663,
222173,200682,
222219,200677,
222164,200674,
222241,200676,
222165,200662,
222213,200673,
222173,200666,
222220,200671,
222185,200684,
222219,200676,
222188,200682,
222218,200669,
222202,200675,
222228,200666,
222197,200681,
222224,200648,
222199,200655,
222200,200649,
222215,200663,
222232,200671,
222212,200683,
222242,200657,
222225,200662,
222247,200664,
222233,200665,
222245,200657,
222232,200684,
222252,200668,
222251,200667,
222254,200659,
222254,200693,
222258,200652,
222261,200678,
222235,200649,
222220,200661,
222180,200619,
222126,200609,
222079,200557,
222014,200553,
221942,200504,
221922,200513,
221925,200489,
221946,200513,
221922,200509,
221963,200541,
221973,200522,
222004,200570,
222032,200544,
222033,200585,
222048,200562,
222082,200602,
222070,200570,
222096,200622,
222108,200585,
222114,200619,
222102,200583,
222118,200636,
222094,200583,
222132,200650,
222094,200577,
222145,200643,
222111,200565,
222141,200635,
222122,200582,
222131,200630,
222096,200571,
222114,200633,
222072,200570,
222109,200606,
222064,200544,
222114,200612,
222062,200547,
222107,200613,
222069,200550,
222115,200610,
222048,200541,
222116,200620,
222080,200555,
222135,200616,
222078,200566,
222158,200631,
222111,200557,
222189,200652,
222120,200576,
222204,200668,
222123,200577,
222226,200648,
222148,200565,
222216,200649,
222157,200586,
222235,200641,
222142,200570,
222234,200650,
222147,200568,
222234,200649,
222170,200581,
222232,200650,
222162,200559,
222248,200662,
222159,200588,
222249,200650,
222169,200592,
222259,200660,
222165,200566,
222252,200646,
222172,200576,
222258,200651,
222168,200576,
222272,200649,
222176,200586,
222271,200671,
222190,200595,
222290,200669,
222193,200610,
222309,200665,
222196,200590,
222270,200655,
222153,200560,
222217,200622,
222051,200522,
222099,200566,
221937,200454,
221981,200513,
221842,200420,
221925,200505,
221838,200412,
221954,200509,
221885,200428,
222007,200512,
221920,200466,
222048,200549,
221970,200485,
222074,200569,
222002,200500,
222106,200577,
222013,200493,
222134,200573,
222005,200506,
222136,200579,
222029,200495,
222132,200577,
222054,200500,
222147,200586,
222060,200505,
222155,200584,
222058,200502,
222158,200581,
222046,200500,
222156,200580,
222047,200487,
222155,200576,
222034,200508,
222143,200579,
222036,200486,
222116,200569,
222035,200477,
222114,200561,
222004,200469,
222126,200554,
222039,200472,
222139,200553,
222057,200475,
222144,200556,
222056,200475,
222164,200561,
222054,200491,
222179,200559,
222075,200475,
222177,200575,
222080,200499,
222190,200568,
222067,200500,
222184,200552,
222096,200484,
222192,200566,
222082,200500,
222212,200567,
222092,200512,
222212,200583,
222085,200499,
222224,200574,
222087,200501,
222217,200575,
222087,200501,
222195,200564,
222094,200510,
222207,200571,
222074,200511,
222213,200567,
222092,200521,
222217,200562,
222097,200512,
222222,200558,
222099,200522,
222224,200550,
222094,200501,
222187,200545,
222070,200480,
222127,200511,
221964,200452,
222027,200458,
221877,200380,
221932,200417,
221792,200353,
221872,200413,
221793,200342,
221893,200416,
221832,200356,
221933,200410,
221879,200390,
221980,200440,
221928,200405,
222000,200443,
221926,200422,
222042,200477,
221963,200437,
222036,200468,
221959,200428,
222055,200453,
221959,200415,
222044,200473,
221966,200438,
222051,200465,
221993,200435,
222064,200484,
221976,200421,
222064,200459,
221969,200427,
222039,200455,
222001,200439,
222044,200466,
221980,200420,
222052,200451,
221973,200412,
222037,200436,
221965,200430,
222042,200441,
221964,200426,
222055,200450,
222000,200425,
222057,200466,
222005,200438,
222071,200458,
222007,200452,
222074,200468,
222020,200433,
222093,200463,
222042,200465,
222113,200453,
222034,200450,
222093,200460,
222035,200457,
222093,200469,
222045,200451,
222093,200461,
222048,200451,
222093,200447,
222029,200446,
222111,200463,
222060,200452,
222096,200460,
222047,200439,
222096,200448,
222075,200442,
222098,200440,
222068,200440,
222095,200448,
222067,200443,
222100,200444,
222073,200424,
222104,200431,
222099,200466,
222117,200445,
222089,200442,
222101,200432,
222048,200425,
222010,200414,
221960,200379,
221931,200343,
221839,200323,
221799,200279,
221758,200281,
221767,200252,
221739,200291,
221755,200270,
221771,200295,
221812,200292,
221831,200313,
221846,200306,
221859,200338,
221891,200314,
221875,200338,
221887,200337,
221899,200354,
221901,200336,
221896,200350,
221913,200338,
221920,200365,
221931,200337,
221926,200355,
221928,200341,
221947,200384,
221938,200351,
221953,200384,
221942,200350,
221966,200380,
221934,200342,
221961,200386,
221940,200329,
221964,200389,
221918,200332,
221954,200387,
221923,200335,
221951,200369,
221929,200321,
221938,200378,
221924,200331,
221950,200393,
221943,200339,
221971,200398,
221965,200354,
221995,200389,
221964,200342,
221996,200406,
221989,200350,
222018,200393,
221992,200338,
222039,200412,
221998,200352,
222049,200405,
222004,200346,
222060,200407,
222005,200335,
222053,200411,
222009,200338,
222064,200418,
222013,200340,
222090,200410,
222002,200331,
222087,200410,
222002,200341,
222079,200402,
221993,200334,
222071,200417,
222017,200339,
222085,200415,
222016,200334,
222083,200426,
222024,200343,
222070,200405,
222009,200324,
222071,200396,
221938,200313,
221987,200358,
221850,200253,
221863,200279,
221706,200191,
221757,200217,
221611,200135,
221707,200219,
221623,200142,
221727,200232,
221656,200169,
221766,200241,
221703,200182,
221817,200265,
221746,200215,
221848,200281,
221766,200225,
221869,200295,
221775,200218,
221874,200308,
221777,200223,
221873,200302,
221779,200221,
221877,200296,
221793,200237,
221907,200316,
221796,200236,
221900,200326,
221810,200235,
221917,200326,
221810,200254,
221918,200319,
221814,200229,
221900,200316,
221803,200240,
221898,200301,
221797,200252,
221891,200305,
221812,200233,
221915,200310,
221829,200246,
221922,200314,
221819,200239,
221922,200324,
221825,200254,
221941,200329,
221860,200246,
221969,200332,
221868,200264,
221978,200338,
221882,200273,
222008,200358,
221906,200279,
222009,200344,
221920,200270,
222023,200336,
221917,200268,
222009,200355,
221906,200273,
222027,200348,
221926,200263,
222028,200353,
221912,200277,
222036,200347,
221938,200272,
222037,200348,
221941,200274,
222039,200350,
221930,200267,
222035,200343,
221931,200252,
222041,200363,
221932,200254,
222078,200351,
221962,200287,
222049,200352,
221918,200278,
222025,200322,
221866,200232,
221907,200273,
221721,200157,
221761,200183,
221576,200089,
221626,200136,
221491,200072,
221611,200119,
221503,200088,
221645,200136,
221557,200101,
221698,200166,
221612,200126,
221741,200185,
221630,200137,
221774,200213,
221684,200153,
221785,200196,
221697,200160,
221805,200212,
221692,200180,
221801,200212,
221697,200160,
221816,200215,
221729,200187,
221847,200228,
221755,200196,
221852,200246,
221765,200200,
221871,200246,
221797,200203,
221879,200250,
221763,200208,
221880,200246,
221774,200204,
221875,200237,
221782,200194,
221879,200246,
221798,200204,
221873,200236,
221821,200208,
221901,200263,
221834,200211,
221916,200258,
221842,200217,
221920,200254,
221855,200224,
221934,200279,
221865,200243,
221963,200280,
221881,200233,
221945,200272,
221896,200253,
221968,200280,
221887,200256,
221964,200275,
221933,200252,
221975,200292,
221915,200253,
221983,200293,
221924,200269,
221989,200285,
221919,200267,
221998,200293,
221934,200266,
221982,200286,
221921,200266,
221990,200290,
221925,200257,
221983,200284,
221953,200273,
222006,200289,
221965,200275,
222012,200297,
221963,200300,
222030,200298,
221969,200296,
222024,200290,
221958,200270,
222006,200276,
221939,200264,
221929,200238,
221809,200199,
221770,200146,
221621,200092,
221581,200038,
221464,200013,
221490,199992,
221461,200025,
221523,200030,
221503,200041,
221574,200051,
221582,200080,
221632,200101,
221624,200103,
221697,200113,
221660,200125,
221699,200120,
221681,200127,
221724,200114,
221710,200124,
221724,200134,
221697,200143,
221740,200124,
221707,200146,
221743,200124,
221764,200154,
221766,200161,
221776,200176,
221784,200149,
221773,200168,
221785,200139,
221783,200181,
221798,200144,
221785,200172,
221787,200161,
221779,200179,
221781,200156,
221771,200184,
221780,200142,
221781,200165,
221793,200144,
221790,200154,
221804,200157,
221814,200176,
221809,200165,
221827,200190,
221826,200167,
221849,200199,
221843,200168,
221868,200203,
221847,200166,
221867,200216,
221870,200178,
221880,200233,
221872,200174,
221891,200229,
221876,200191,
221905,200231,
221879,200187,
221920,200247,
221890,200179,
221916,200246,
221915,200181,
221917,200242,
221891,200190,
221932,200247,
221915,200178,
221932,200228,
221915,200188,
221947,200249,
221914,200193,
221937,200239,
221912,200183,
221933,200249,
221921,200203,
221972,200270,
221917,200190,
221983,200258,
221927,200201,
221990,200258,
221965,200202,
222009,200256,
221964,200206,
222015,200266,
221941,200199,
221998,200241,
221887,200161,
221909,200213,
221754,200090,
221728,200100,
221557,199994,
221577,200016,
221452,199916,
221505,200003,
221441,199926,
221541,200022,
221489,199953,
221604,200055,
221553,200003,
221665,200079,
221598,200019,
221708,200096,
221650,200025,
221733,200108,
221676,200043,
221728,200126,
221646,200038,
221741,200128,
221661,200036,
221747,200108,
221681,200050,
221769,200136,
221677,200075,
221798,200144,
221698,200076,
221798,200153,
221712,200082,
221809,200148,
221734,200072,
221830,200145,
221709,200081,
221807,200139,
221710,200083,
221804,200156,
221721,200066,
221815,200166,
221719,200079,
221821,200181,
221720,200092,
221846,200174,
221762,200112,
221870,200185,
221778,200125,
221881,200181,
221774,200106,
221898,200209,
221795,200117,
221921,200192,
221831,200128,
221920,200202,
221818,200133,
221928,200216,
221853,200143,
221932,200205,
221865,200131,
221956,200214,
221869,200164,
221990,200236,
221867,200142,
222007,200227,
221902,200143,
221994,200242,
221905,200147,
221998,200235,
221903,200161,
222017,200234,
221907,200161,
222039,200254,
221911,200164,
222033,200236,
221916,200174,
222036,200242,
221930,200166,
222056,200245,
221944,200159,
222053,200250,
221965,200158,
222064,200248,
221959,200181,
222065,200278,
221971,200182,
222081,200268,
221971,200163,
222074,200235,
221953,200160,
222006,200209,
221848,200093,
221867,200122,
221656,200002,
221665,200018,
221470,199917,
221532,199953,
221423,199869,
221538,199970,
221462,199913,
221609,199997,
221524,199945,
221675,200051,
221577,199985,
221715,200049,
221629,200011,
221776,200078,
221654,200011,
221775,200085,
221658,200030,
221783,200083,
221643,200048,
221767,200107,
221668,200032,
221785,200103,
221696,200053,
221825,200118,
221714,200072,
221822,200135,
221723,200081,
221855,200118,
221745,200070,
221849,200122,
221748,200058,
221847,200115,
221727,200058,
221820,200107,
221715,200061,
221825,200112,
221742,200054,
221833,200103,
221752,200070,
221848,200101,
221770,200081,
221850,200119,
221779,200063,
221881,200141,
221798,200078,
221910,200129,
221810,200091,
221930,200134,
221838,200106,
221948,200144,
221847,200092,
221927,200132,
221868,200099,
221949,200138,
221868,200109,
221946,200161,
221879,200122,
221953,200150,
221880,200109,
221953,200170,
221886,200120,
221960,200159,
221890,200131,
221983,200157,
221903,200133,
221980,200172,
221920,200132,
221991,200178,
221921,200129,
222000,200177,
221933,200146,
222015,200170,
221933,200156,
222025,200175,
221947,200168,
222029,200187,
221970,200166,
222040,200186,
221983,200182,
222033,200185,
221990,200175,
222040,200186,
221997,200175,
222054,200199,
221979,200173,
222057,200177,
221983,200171,
222024,200164,
221916,200129,
221902,200107,
221739,200050,
221704,200002,
221572,199934,
221544,199926,
221465,199890,
221517,199905,
221489,199909,
221563,199939,
221549,199959,
221626,199957,
221615,199960,
221705,200003,
221672,200005,
221727,200023,
221710,200026,
221744,200021,
221728,200039,
221762,200041,
221730,200025,
221773,200017,
221741,200046,
221779,200031,
221773,200042,
221799,200052,
221782,200040,
221810,200054,
221822,200072,
221845,200051,
221810,200084,
221816,200048,
221803,200084,
221823,200036,
221787,200066,
221813,200040,
221796,200067,
221825,200037,
221789,200057,
221821,200034,
221810,200058,
221835,200044,
221847,200083,
221848,200048,
221833,200081,
221843,200066,
221874,200095,
221875,200074,
221896,200097,
221905,200080,
221891,200107,
221904,200082,
221903,200103,
221902,200077,
221928,200119,
221918,200089,
221951,200122,
221943,200066,
221933,200112,
221937,200073,
221935,200128,
221936,200066,
221947,200142,
221949,200077,
221969,200136,
221955,200079,
221969,200147,
221948,200089,
221964,200158,
221951,200079,
221992,200139,
221955,200080,
221996,200145,
221958,200084,
221989,200137,
221965,200082,
221996,200137,
221962,200093,
222005,200137,
221970,200088,
222026,200150,
221979,200095,
222022,200135,
221976,200092,
222015,200154,
221987,200085,
222057,200145,
221996,200080,
222057,200159,
221995,200088,
222060,200155,
221984,200070,
222028,200120,
221916,200030,
221909,200065,
221777,199963,
221764,199988,
221622,199890,
221639,199912,
221534,199836,
221607,199915,
221540,199858,
221648,199953,
221600,199872,
221697,199971,
221647,199920,
221744,199986,
221689,199928,
221769,200020,
221718,199944,
221807,200022,
221736,199948,
221823,200032,
221752,199954,
221823,200014,
221741,199959,
221835,200028,
221767,199959,
221851,200028,
221771,199964,
221880,200042,
221793,199975,
221886,200055,
221804,199964,
221888,200050,
221798,199966,
221891,200051,
221778,199980,
221879,200045,
221774,199960,
221870,200039,
221775,199962,
221868,200043,
221778,199959,
221872,200059,
221794,199982,
221904,200075,
221827,199984,
221941,200059,
221823,199977,
221926,200079,
221839,200001,
221955,200077,
221872,200007,
221966,200092,
221891,200027,
221980,200080,
221883,200018,
221986,200106,
221898,200014,
221993,200109,
221909,200018,
222005,200119,
221912,200017,
222023,200094,
221918,200041,
222014,200122,
221922,200042,
222040,200122,
221917,200028,
222024,200111,
221941,200027,
222048,200107,
221952,200022,
222049,200131,
221951,200053,
222068,200123,
221968,200062,
222081,200144,
221984,200053,
222087,200128,
221994,200042,
222094,200147,
221993,200052,
222088,200142,
222006,200048,
222102,200127,
222005,200064,
222108,200148,
221992,200057,
222119,200144,
222035,200073,
222131,200146,
222018,200069,
222089,200134,
221969,200050,
222025,200092,
221837,199954,
221866,199996,
221668,199890,
221719,199925,
221559,199824,
221652,199901,
221552,199845,
221687,199908,
221593,199843,
221733,199939,
221651,199892,
221787,199955,
221687,199919,
221833,199993,
221699,199933,
221853,199992,
221740,199931,
221876,200017,
221741,199962,
221889,200010,
221763,199958,
221882,200015,
221793,199971,
221904,200023,
221800,199976,
221925,200036,
221821,199985,
221924,200038,
221835,199985,
221936,200055,
221823,199988,
221932,200037,
221832,199991,
221941,200026,
221818,199985,
221916,200017,
221830,199979,
221921,200021,
221836,199987,
221924,200028,
221876,199998,
221947,200038,
221887,200001,
221963,200052,
221912,200008,
221988,200062,
221929,200031,
222011,200089,
221942,200037,
222051,200080,
221970,200043,
222052,200073,
221978,200034,
222063,200093,
221976,200050,
222062,200094,
221986,200053,
222058,200118,
222001,200040,
222079,200086,
222010,200055,
222085,200103,
222003,200042,
222073,200090,
222023,200055,
222090,200102,
222034,200065,
222105,200090,
222046,200058,
222118,200104,
222049,200078,
222114,200106,
222049,200066,
222120,200095,
222055,200089,
222124,200105,
222082,200079,
222139,200098,
222082,200101,
222145,200107,
222087,200085,
222167,200123,
222105,200124,
222177,200137,
222109,200109,
222175,200122,
222136,200118,
222192,200130,
222107,200132,
222177,200113,
222102,200097,
222111,200074,
222009,200036,
221973,200004,
221843,199954,
221813,199912,
221698,199872,
221690,199868,
221608,199848,
221689,199853,
221638,199858,
221722,199878,
221708,199894,
221776,199908,
221756,199936,
221833,199934,
221813,199947,
221871,199949,
221853,199965,
221894,199967,
221871,199962,
221902,199958,
221892,199982,
221916,199985,
221898,199981,
221929,199986,
221904,199985,
221946,199992,
221948,200005,
221944,200000,
221937,199994,
221970,200004,
221945,200011,
221965,199992,
221947,200012,
221952,199971,
221940,200004,
221944,199974,
221926,200010,
221948,199978,
221945,200008,
221950,199980,
221962,200021,
221989,199995,
221985,200020,
222000,200002,
222000,200030,
222016,200019,
222035,200042,
222035,200022,
222043,200061,
222051,200026,
222039,200051,
222066,200023,
222050,200061,
222057,200035,
222075,200074,
222081,200043,
222089,200076,
222073,200027,
222093,200077,
222084,200033,
222095,200087,
222096,200040,
222118,200081,
222086,200040,
222125,200092,
222092,200027,
222107,200105,
222108,200039,
222128,200108,
222105,200037,
222138,200118,
222096,200036,
222151,200106,
222129,200047,
222154,200111,
222118,200068,
222163,200118,
222123,200060,
222172,200106,
222140,200057,
222184,200123,
222147,200056,
222177,200125,
222162,200055,
222210,200134,
222164,200071,
222231,200135,
222175,200056,
222228,200133,
222183,200060,
222233,200131,
222159,200057,
222204,200117,
222100,200017,
222081,200043,
221922,199913,
221907,199949,
221779,199834,
221786,199880,
221708,199798,
221759,199875,
221689,199803,
221793,199896,
221743,199825,
221863,199924,
221809,199862,
221898,199948,
221833,199877,
221937,199977,
221873,199897,
221973,199995,
221886,199916,
221972,199995,
221885,199906,
221992,199988,
221912,199927,
222001,199992,
221937,199934,
222010,200004,
221946,199929,
222032,200018,
221948,199961,
222059,200010,
221970,199957,
222051,200011,
221964,199951,
222059,200017,
221950,199948,
222056,200020,
221958,199939,
222047,200011,
221956,199934,
222047,200005,
221953,199926,
222064,200026,
221976,199949,
222091,200023,
221996,199950,
222110,200045,
222017,199976,
222102,200046,
222018,199962,
222138,200042,
222016,199963,
222132,200055,
222045,199979,
222145,200055,
222046,199973,
222145,200063,
222055,199977,
222154,200061,
222073,199974,
222149,200050,
222074,199973,
222168,200052,
222069,199970,
222176,200046,
222092,199974,
222184,200069,
222085,199984,
222205,200069,
222098,199986,
222209,200083,
222115,199980,
222228,200064,
222119,199997,
222251,200081,
222118,199987,
222250,200090,
222142,199988,
222253,200092,
222154,200021,
222237,200087,
222161,200002,
222249,200100,
222150,200010,
222266,200100,
222167,200014,
222269,200099,
222172,200008,
222273,200103,
222168,200018,
222283,200105,
222178,200010,
222279,200104,
222169,200028,
222273,200097,
222114,199989,
222192,200037,
221997,199909,
222029,199950,
221839,199817,
221858,199865,
221708,199777,
221810,199848,
221681,199760,
221806,199846,
221712,199780,
221867,199875,
221764,199833,
221921,199907,
221841,199855,
221973,199948,
221865,199880,
222007,199957,
221897,199898,
222012,199958,
221898,199882,
222025,199958,
221869,199899,
222002,199959,
221911,199897,
222037,199963,
221915,199917,
222039,199965,
221938,199919,
222065,199981,
221957,199941,
222064,199985,
221947,199943,
222059,199973,
221969,199923,
222076,199986,
221956,199932,
222066,199954,
221966,199925,
222076,199977,
221966,199932,
222090,199986,
222006,199934,
222101,199988,
222006,199951,
222131,200008,
222035,199957,
222143,200006,
222067,199973,
222161,200002,
222072,199976,
222172,200033,
222085,199974,
222173,200013,
222106,199978,
222210,200022,
222121,199986,
222199,200048,
222110,199994,
222204,200029,
222135,199995,
222217,200049,
222138,199991,
222219,200049,
222163,200015,
222232,200056,
222166,200006,
222236,200050,
222170,200014,
222237,200049,
222177,200000,
222239,200031,
222181,200002,
222251,200044,
222183,200010,
222266,200058,
222197,200015,
222265,200047,
222216,200020,
222281,200065,
222202,200028,
222275,200051,
222205,200040,
222279,200052,
222199,200029,
222285,200074,
222233,200027,
222292,200078,
222243,200060,
222308,200079,
222241,200044,
222312,200069,
222239,200045,
222321,200070,
222255,200075,
222334,200075,
222262,200073,
222305,200056,
222209,200038,
222215,200008,
222042,199959,
222023,199919,
221881,199855,
221857,199827,
221768,199787,
221795,199787,
221724,199780,
221818,199815,
221775,199791,
221864,199838,
221845,199855,
221916,199864,
221897,199872,
221957,199881,
221923,199889,
221983,199902,
221956,199914,
221999,199899,
221962,199905,
222002,199906,
221970,199916,
222008,199900,
221976,199915,
222002,199912,
221996,199939,
222019,199916,
222029,199939,
222034,199944,
222028,199942,
222049,199933,
222051,199953,
222056,199927,
222052,199956,
222038,199918,
222020,199948,
222048,199934,
222029,199956,
222027,199922,
222034,199951,
222067,199925,
222036,199945,
222086,199920,
222049,199963,
222088,199942,
222085,199980,
222107,199951,
222100,199999,
222112,199962,
222121,200003,
222150,199972,
222137,200015,
222165,199975,
222152,200004,
222173,199985,
222179,200031,
222150,199988,
222185,200034,
222168,199982,
222194,200027,
222181,199992,
222200,200031,
222190,199987,
222216,200051,
222197,199984,
222222,200059,
222178,200002,
222246,200075,
222196,199996,
222212,200059,
222194,199990,
222229,200055,
222226,200002,
222244,200058,
222224,199996,
222251,200062,
222227,200003,
222245,200057,
222227,200011,
222267,200075,
222227,200027,
222277,200061,
222243,200029,
222305,200076,
222252,200018,
222291,200067,
222257,200022,
222338,200076,
222270,200006,
222330,200075,
222269,200021,
222340,200083,
222290,200028,
222359,200100,
222279,200020,
222363,200089,
222297,200055,
222388,200098,
222302,200042,
222370,200080,
222257,199982,
222289,200046,
222116,199926,
222094,199937,
221919,199824,
221919,199844,
221754,199748,
221800,199801,
221715,199712,
221771,199794,
221744,199742,
221854,199820,
221788,199771,
221905,199846,
221852,199803,
221957,199880,
221883,199805,
222003,199905,
221914,199837,
222019,199918,
221902,199835,
222009,199902,
221909,199835,
222005,199914,
221928,199842,
222021,199924,
221928,199859,
222047,199944,
221960,199863,
222059,199938,
221970,199885,
222071,199960,
221992,199885,
222095,199953,
221983,199888,
222094,199953,
221994,199880,
222104,199960,
221976,199880,
222098,199970,
221995,199872,
222118,199966,
221997,199873,
222115,199973,
222017,199893,
222139,199978,
222038,199916,
222166,199987,
222056,199909,
222177,199995,
222073,199904,
222196,200003,
222082,199919,
222210,200000,
222111,199932,
222199,200001,
222114,199933,
222226,200009,
222136,199941,
222242,200004,
222132,199930,
222243,200009,
222144,199928,
222262,200012,
222150,199941,
222269,200015,
222154,199934,
222267,200009,
222148,199933,
222282,200026,
222175,199939,
222297,200011,
222182,199960,
222296,200035,
222191,199956,
222321,200041,
222198,199943,
222317,200032,
222218,199939,
222339,200050,
222221,199953,
222345,200036,
222244,199953,
222347,200048,
222245,199956,
222341,200047,
222245,199946,
222358,200047,
222258,199961,
222365,200053,
222247,199959,
222368,200045,
222240,199944,
222355,200040,
222263,199977,
222371,200036,
222265,199973,
222372,200041,
222280,199973,
222398,200052,
222275,199978,
222403,200036,
222275,199981,
222383,200030,
222227,199935,
222294,199984,
222073,199876,
222114,199902,
221913,199779,
221949,199819,
221777,199699,
221860,199757,
221730,199715,
221873,199776,
221762,199733,
221912,199794,
221796,199748,
221965,199832,
221855,199793,
222001,199853,
221905,199793,
222033,199875,
221930,199815,
222063,199863,
221943,199820,
222058,199866,
221970,199813,
222047,199865,
221960,199818,
222064,199863,
221961,199834,
222075,199890,
221996,199841,
222089,199883,
222002,199846,
222104,199886,
222021,199833,
222101,199891,
222007,199823,
222096,199871,
221995,199844,
222092,199886,
221998,199826,
222092,199874,
222019,199830,
222102,199898,
222023,199835,
222101,199898,
222043,199857,
222135,199901,
222073,199864,
222164,199918,
222093,199870,
222176,199912,
222106,199876,
222177,199921,
222119,199899,
222183,199939,
222134,199870,
222205,199929,
222137,199886,
222204,199933,
222142,199899,
222206,199927,
222156,199900,
222228,199929,
222160,199887,
222220,199916,
222162,199901,
222218,199932,
222158,199891,
222225,199930,
222183,199876,
222236,199930,
222170,199905,
222244,199928,
222179,199910,
222253,199936,
222186,199911,
222271,199930,
222196,199908,
222269,199946,
222199,199927,
222277,199928,
222207,199931,
222290,199933,
222218,199935,
222281,199959,
222222,199936,
222290,199946,
222238,199938,
222279,199954,
222227,199942,
222287,199950,
222245,199941,
222276,199944,
222260,199948,
222318,199943,
222250,199928,
222320,199939,
222273,199946,
222315,199947,
222257,199934,
222322,199939,
222252,199932,
222263,199897,
222137,199853,
222091,199808,
221982,199782,
221939,199740,
221852,199721,
221851,199698,
221808,199698,
221841,199702,
221832,199720,
221907,199730,
221891,199736,
221945,199755,
221951,199774,
221987,199769,
222004,199781,
222012,199790,
222013,199805,
222016,199779,
222017,199797,
222010,199787,
222016,199787,
222040,199757,
222022,199797,
222036,199773,
222038,199809,
222047,199785,
222056,199808,
222037,199787,
222048,199826,
222067,199787,
222072,199819,
222050,199805,
222050,199811,
222064,199772,
222068,199819,
222053,199766,
222043,199811,
222049,199775,
222037,199822,
222054,199795,
222066,199824,
222088,199792,
222102,199839,
222086,199802,
222095,199838,
222091,199802,
222107,199858,
222126,199803,
222130,199853,
222126,199813,
222161,199865,
222135,199828,
222151,199892,
222157,199816,
222171,199875,
222148,199819,
222180,199881,
222152,199825,
222205,199897,
222167,199816,
222207,199871,
222161,199827,
222192,199881,
222163,199823,
222206,199884,
222166,199814,
222218,199890,
222190,199831,
222225,199887,
222184,199837,
222225,199884,
222181,199834,
222237,199917,
222195,199841,
222241,199893,
222195,199835,
222263,199913,
222212,199848,
222245,199889,
222203,199840,
222253,199909,
222210,199835,
222292,199904,
222215,199843,
222297,199909,
222229,199837,
222302,199914,
222232,199845,
222312,199909,
222249,199840,
222331,199924,
222256,199842,
222335,199929,
222265,199837,
222359,199942,
222277,199843,
222318,199910,
222217,199827,
222240,199869,
222097,199776,
222096,199800,
221954,199687,
221970,199733,
221853,199636,
221906,199687,
221831,199629,
221926,199712,
221854,199628,
221969,199722,
221908,199676,
221995,199770,
221943,199701,
222054,199792,
221962,199718,
222084,199797,
222006,199727,
222091,199800,
222025,199736,
222110,199807,
222030,199741,
222123,199819,
222039,199752,
222124,199812,
222052,199756,
222148,199821,
222067,199756,
222152,199840,
222042,199753,
222140,199832,
222050,199768,
222170,199830,
222047,199744,
222150,199841,
222056,199765,
222157,199831,
222039,199749,
222147,199835,
222049,199750,
222165,199813,
222069,199753,
222164,199841,
222071,199756,
222186,199833,
222094,199762,
222210,199859,
222124,199792,
222218,199854,
222137,199780,
222238,199861,
222149,199792,
222230,199872,
222167,199800,
222266,199865,
222182,199794,
222279,199873,
222172,199786,
222282,199878,
222190,199788,
222294,199873,
222192,199791,
222292,199883,
222199,199804,
222309,199879,
222204,199800,
222313,199893,
222207,199791,
222323,199892,
222222,199778,
222329,199886,
222212,199797,
222336,199887,
222214,199800,
222339,199898,
222238,199800,
222334,199902,
222238,199795,
222347,199883,
222225,199806,
222351,199886,
222257,199838,
222360,199897,
222252,199809,
222366,199912,
222274,199814,
222386,199888,
222270,199835,
222389,199893,
222268,199832,
222395,199913,
222269,199828,
222380,199896,
222256,199817,
222341,199876,
222186,199775,
222226,199819,
222031,199711,
222096,199752,
221935,199656,
222011,199678,
221872,199622,
221990,199696,
221870,199640,
222029,199722,
221923,199673,
222074,199741,
221979,199699,
222109,199767,
222021,199728,
222141,199793,
222055,199742,
222174,199808,
222059,199748,
222180,199806,
222069,199755,
222195,199802,
222094,199748,
222213,199811,
222116,199786,
222250,199816,
222128,199768,
222229,199819,
222130,199768,
222226,199815,
222132,199757,
222226,199794,
222109,199735,
222207,199800,
222105,199746,
222205,199777,
222099,199742,
222192,199774,
222114,199747,
222201,199792,
222128,199752,
222231,199803,
222150,199761,
222241,199815,
222170,199758,
222243,199826,
222174,199777,
222277,199827,
222202,199777,
222259,199835,
222209,199783,
222291,199834,
222232,199795,
222300,199820,
222220,199783,
222309,199828,
222235,199791,
222305,199822,
222234,199791,
222303,199827,
222239,199794,
222327,199833,
222236,199793,
222331,199823,
222252,199788,
222324,199835,
222253,199802,
222325,199830,
222255,199797,
222323,199828,
222239,199802,
222327,199836,
222268,199818,
222321,199833,
222270,199803,
222334,199821,
222277,199808,
222347,199825,
222292,199826,
222353,199830,
222287,199812,
222334,199835,
222261,199806,
222292,199801,
222183,199754,
222201,199748,
222079,199707,
222047,199682,
221958,199652,
221970,199642,
221909,199614,
221955,199620,
221937,199632,
222007,199658,
221996,199650,
222042,199673,
222039,199671,
222088,199672,
222066,199688,
222123,199702,
222089,199702,
222127,199709,
222099,199704,
222132,199709,
222120,199711,
222149,199716,
222136,199729,
222173,199714,
222145,199727,
222174,199739,
222168,199743,
222182,199725,
222154,199735,
222154,199709,
222132,199705,
222155,199704,
222151,199709,
222144,199698,
222145,199730,
222136,199707,
222132,199716,
222137,199686,
222103,199706,
222129,199695,
222128,199700,
222144,199701,
222131,199721,
222169,199712,
222151,199734,
222173,199708,
222185,199738,
222199,199717,
222186,199738,
222199,199705,
222178,199725,
222207,199699,
222196,199740,
222208,199729,
222206,199730,
222204,199709,
222209,199756,
222212,199715,
222223,199752,
222223,199717,
222233,199764,
222226,199709,
222215,199751,
222203,199722,
222234,199744,
222226,199699,
222239,199758,
222205,199698,
222242,199775,
222221,199710,
222239,199761,
222219,199716,
222257,199770,
222229,199718,
222256,199783,
222220,199708,
222243,199749,
222196,199681,
222170,199721,
222065,199632,
222028,199650,
221960,199568,
221937,199598,
221897,199537,
221913,199595,
221872,199534,
221914,199590,
221889,199549,
221956,199617,
221918,199556,
221994,199637,
221963,199566,
222036,199638,
221981,199580,
222071,199663,
221997,199597,
222076,199670,
222015,199596,
222082,199675,
222008,199605,
222113,199683,
222033,199608,
222122,199684,
222062,199615,
222135,199686,
222058,199629,
222118,199700,
222044,199611,
222121,199673,
222055,199611,
222106,199683,
222042,199609,
222101,199669,
222046,199609,
222092,199669,
222028,199597,
222115,199662,
222031,199596,
222106,199665,
222076,199601,
222147,199690,
222079,199611,
222168,199703,
222094,199638,
222192,199694,
222102,199630,
222200,199714,
222109,199637,
222217,199728,
222133,199645,
222216,199733,
222139,199656,
222232,199733,
222125,199642,
222232,199723,
222138,199651,
222243,199732,
222148,199643,
222251,199732,
222139,199657,
222229,199752,
222153,199656,
222235,199725,
222142,199662,
222260,199732,
222153,199651,
222248,199728,
222161,199664,
222273,199752,
222178,199671,
222245,199737,
222163,199651,
222263,199717,
222136,199645,
222193,199687,
222049,199591,
222079,199629,
221911,199511,
221961,199578,
221813,199464,
221880,199521,
221785,199440,
221872,199537,
221818,199460,
221927,199547,
221852,199491,
221971,199564,
221889,199487,
222010,199600,
221925,199530,
222035,199601,
221938,199516,
222059,199604,
221936,199536,
222047,199598,
221932,199513,
222050,199613,
221941,199522,
222055,199620,
221968,199542,
222074,199624,
221971,199537,
222075,199633,
221969,199526,
222076,199627,
221988,199533,
222055,199623,
221971,199535,
222069,199612,
221959,199530,
222052,199606,
221959,199524,
222057,199594,
221958,199520,
222076,199613,
221978,199535,
222091,199624,
221987,199523,
222107,199623,
222000,199544,
222095,199634,
222017,199551,
222128,199638,
222030,199560,
222155,199644,
222045,199564,
222153,199648,
222045,199565,
222171,199637,
222057,199571,
222172,199638,
222057,199575,
222191,199648,
222057,199579,
222173,199640,
222050,199584,
222184,199645,
222077,199573,
222190,199639,
222061,199585,
222201,199644,
222075,199577,
222200,199641,
222080,199585,
222200,199653,
222089,199591,
222201,199643,
222086,199600,
222203,199649,
222075,199566,
222175,199615,
222022,199557,
222082,199593,
221925,199499,
221953,199518,
221797,199437,
221858,199460,
221736,199401,
221830,199440,
221736,199403,
221858,199446,
221779,199441,
221900,199491,
221805,199442,
221921,199500,
221844,199481,
221936,199508,
221869,199477,
221971,199530,
221903,199480,
221983,199537,
221896,199491,
221987,199526,
221908,199494,
221973,199527,
221911,199489,
222007,199546,
221939,199501,
222007,199541,
221948,199503,
222002,199557,
221949,199513,
222021,199555,
221939,199499,
222010,199529,
221941,199492,
222008,199520,
221927,199499,
222007,199526,
221917,199497,
222000,199532,
221932,199501,
222006,199527,
221945,199490,
222027,199534,
221951,199516,
222043,199524,
221996,199532,
222056,199549,
221999,199531,
222069,199552,
222013,199537,
222100,199554,
222020,199558,
222084,199563,
222017,199550,
222099,199576,
222026,199560,
222100,199558,
222039,199562,
222105,199569,
222037,199550,
222113,199577,
222044,199552,
222116,199576,
222046,199555,
222107,199570,
222040,199550,
222105,199561,
222061,199553,
222113,199586,
222088,199555,
222141,199577,
222088,199565,
222137,199582,
222087,199562,
222148,199586,
222059,199558,
222098,199541,
222010,199509,
221962,199476,
221861,199434,
221817,199399,
221728,199376,
221717,199351,
221677,199341,
221699,199347,
221693,199370,
221749,199380,
221740,199388,
221804,199378,
221781,199405,
221842,199413,
221813,199428,
221854,199421,
221827,199447,
221864,199416,
221843,199444,
221861,199419,
221851,199443,
221878,199430,
221874,199440,
221905,199426,
221890,199454,
221922,199439,
221904,199462,
221919,199454,
221907,199466,
221904,199435,
221890,199464,
221905,199436,
221908,199474,
221916,199439,
221901,199459,
221911,199429,
221913,199456,
221933,199431,
221916,199471,
221935,199453,
221945,199486,
221939,199457,
221952,199496,
221951,199456,
221974,199514,
221968,199460,
221989,199540,
221968,199465,
222010,199517,
222002,199472,
222010,199514,
222004,199477,
222028,199529,
221992,199475,
222032,199516,
222009,199484,
222031,199526,
222010,199459,
222024,199538,
222002,199476,
222025,199536,
222016,199484,
222054,199540,
222011,199472,
222053,199533,
222026,199490,
222066,199540,
222034,199466,
222068,199543,
222054,199476,
222087,199543,
222009,199485,
222084,199553,
222026,199483,
222098,199552,
222040,199476,
222097,199535,
222020,199470,
222081,199532,
221977,199428,
221977,199476,
221824,199353,
221839,199388,
221699,199284,
221727,199336,
221623,199261,
221695,199323,
221618,199250,
221719,199344,
221658,199270,
221736,199362,
221698,199291,
221798,199384,
221737,199309,
221827,199406,
221760,199320,
221850,199410,
221771,199335,
221860,199396,
221782,199327,
221860,199404,
221786,199346,
221870,199428,
221802,199349,
221890,199420,
221809,199352,
221911,199432,
221823,199361,
221929,199436,
221811,199374,
221925,199429,
221821,199362,
221919,199438,
221806,199364,
221908,199438,
221810,199361,
221920,199441,
221819,199361,
221925,199448,
221819,199370,
221935,199440,
221840,199367,
221951,199456,
221868,199377,
221960,199457,
221862,199381,
221981,199473,
221871,199381,
221989,199452,
221896,199379,
221992,199459,
221909,199394,
222015,199461,
221911,199397,
222021,199462,
221913,199405,
222024,199477,
221922,199405,
222022,199468,
221920,199401,
222039,199476,
221943,199392,
222035,199476,
221931,199398,
222036,199481,
221935,199396,
222044,199475,
221946,199391,
222050,199468,
221961,199400,
222055,199480,
221961,199394,
222073,199484,
221959,199404,
222083,199483,
221987,199391,
222092,199500,
221983,199404,
222086,199490,
221997,199396,
222070,199484,
221921,199376,
221980,199422,
221790,199313,
221816,199351,
221663,199245,
221711,199288,
221562,199196,
221677,199269,
221562,199172,
221701,199261,
221605,199220,
221746,199290,
221649,199252,
221790,199334,
221680,199267,
221820,199329,
221720,199270,
221825,199345,
221726,199268,
221844,199361,
221729,199286,
221850,199353,
221749,199305,
221877,199376,
221766,199314,
221905,199384,
221790,199321,
221915,199394,
221802,199329,
221922,199401,
221824,199340,
221934,199384,
221803,199345,
221915,199397,
221799,199336,
221912,199389,
221786,199344,
221917,199384,
221806,199333,
221937,199399,
221820,199344,
221937,199398,
221852,199364,
221956,199422,
221866,199373,
221971,199421,
221887,199361,
222000,199417,
221896,199371,
222003,199425,
221914,199361,
222021,199439,
221938,199358,
222028,199441,
221926,199388,
222040,199440,
221948,199384,
222037,199439,
221951,199396,
222029,199442,
221950,199392,
222025,199425,
221961,199400,
222054,199432,
221979,199383,
222058,199449,
221990,199390,
222046,199433,
221974,199390,
222042,199438,
221971,199385,
222047,199443,
221981,199392,
222056,199449,
221994,199409,
222066,199437,
221999,199403,
222083,199439,
222007,199399,
222075,199438,
222024,199404,
222070,199444,
221992,199393,
222039,199415,
221931,199352,
221924,199346,
221787,199298,
221786,199275,
221650,199216,
221683,199240,
221598,199187,
221652,199221,
221608,199199,
221673,199231,
221625,199227,
221717,199256,
221667,199251,
221763,199273,
221711,199264,
221804,199277,
221742,199286,
221822,199305,
221750,199282,
221823,199307,
221758,199291,
221817,199314,
221783,199289,
221841,199310,
221806,199321,
221856,199328,
221835,199310,
221888,199340,
221836,199323,
221882,199334,
221839,199335,
221904,199335,
221847,199318,
221892,199335,
221834,199328,
221884,199314,
221854,199328,
221898,199325,
221858,199341,
221907,199327,
221898,199328,
221918,199346,
221909,199346,
221930,199334,
221921,199347,
221954,199342,
221948,199359,
221978,199352,
221961,199371,
221994,199365,
221974,199375,
221987,199357,
221981,199387,
222008,199363,
221993,199391,
222003,199372,
221993,199388,
222012,199371,
222006,199388,
222019,199381,
222008,199405,
222024,199383,
222019,199399,
222016,199376,
222025,199401,
222029,199367,
222027,199408,
222029,199378,
222017,199401,
222035,199374,
222026,199419,
222006,199386,
222021,199414,
222030,199366,
222038,199418,
222020,199381,
222046,199427,
222035,199386,
222078,199437,
222055,199386,
222072,199443,
222036,199392,
222076,199435,
222044,199378,
222009,199403,
221962,199328,
221902,199336,
221821,199266,
221766,199262,
221692,199193,
221668,199216,
221623,199158,
221662,199222,
221630,199183,
221695,199241,
221670,199185,
221746,199258,
221722,199205,
221784,199299,
221758,199234,
221816,199309,
221770,199244,
221837,199311,
221794,199242,
221869,199331,
221803,199262,
221873,199348,
221813,199289,
221909,199372,
221853,199286,
221929,199371,
221877,199291,
221952,199374,
221882,199311,
221952,199366,
221901,199298,
221930,199365,
221892,199298,
221948,199374,
221874,199299,
221921,199361,
221891,199292,
221953,199357,
221869,199305,
221943,199363,
221890,199288,
221990,199373,
221909,199315,
222008,199395,
221915,199314,
222021,199390,
221942,199334,
222047,199424,
221939,199332,
222065,199415,
221969,199336,
222071,199415,
221972,199348,
222065,199439,
222002,199353,
222100,199430,
222002,199373,
222096,199419,
222003,199347,
222094,199426,
222005,199357,
222099,199423,
222011,199359,
222116,199422,
222023,199358,
222117,199422,
222022,199347,
222118,199434,
222020,199345,
222134,199419,
222040,199350,
222121,199437,
222039,199347,
222137,199430,
222055,199356,
222138,199429,
222040,199352,
222183,199435,
222088,199365,
222176,199446,
222078,199357,
222177,199457,
222088,199350,
222179,199446,
222074,199344,
222168,199435,
222044,199323,
222098,199402,
221932,199278,
221965,199319,
221795,199180,
221825,199238,
221681,199143,
221764,199212,
221672,199132,
221774,199230,
221702,199150,
221811,199239,
221726,199159,
221845,199256,
221765,199182,
221894,199294,
221811,199210,
221913,199297,
221823,199223,
221932,199302,
221834,199224,
221958,199309,
221870,199243,
221980,199318,
221881,199254,
221998,199332,
221895,199254,
222007,199335,
221902,199287,
222024,199346,
221910,199269,
222017,199349,
221883,199286,
221996,199333,
221891,199287,
222011,199336,
221897,199281,
221999,199347,
221902,199285,
222021,199333,
221920,199285,
222033,199341,
221931,199309,
222049,199341,
221944,199295,
222054,199359,
221952,199313,
222080,199363,
221972,199312,
222088,199374,
221984,199317,
222087,199382,
222006,199329,
222099,199380,
222025,199347,
222123,199371,
222028,199334,
222131,199386,
222053,199337,
222150,199389,
222044,199333,
222141,199397,
222067,199357,
222151,199411,
222070,199352,
222161,199389,
222067,199353,
222162,199392,
222079,199346,
222153,199397,
222094,199338,
222178,199413,
222092,199359,
222165,199409,
222082,199361,
222197,199401,
222099,199360,
222184,199403,
222106,199367,
222200,199397,
222123,199381,
222198,199417,
222135,199387,
222214,199420,
222146,199398,
222220,199419,
222149,199403,
222246,199417,
222155,199386,
222202,199398,
222085,199358,
222105,199344,
221954,199279,
221949,199262,
221801,199220,
221813,199190,
221709,199163,
221761,199156,
221691,199157,
221790,199191,
221738,199197,
221812,199210,
221774,199216,
221869,199238,
221840,199245,
221904,199261,
COM4 disconnected!
