COM4 connected!
798,4619,
240880,217789,
241063,217874,
241017,217861,
24122241463,218029,
241687,218141,
241670,218137,
241832,218207,
241734,218164,
241792,218174,
241646,218091,
241646,218098,
241418,217989,
241419,217982,
241227,217882,
241277,217899,
241113,217833,
241199,217882,
241120,217827,
241250,217899,
241213,217889,
241391,217972,
241382,217962,
241632,218080,
241664,218088,
241951,218214,
242016,218241,
242320,218407,
242395,218423,
242725,218583,
242788,218609,
243080,218741,
243150,218777,
243438,218898,
243448,218897,
243659,219000,
243606,218960,
243740,219021,
243652,218968,
243769,219019,
243669,218948,
243759,219019,
243660,218953,
243784,218998,
243687,218960,
243829,219025,
243762,218957,
243900,219062,
243875,219023,
244073,219135,
244066,219139,
244311,219238,
244344,219257,
244630,219390,
244702,219445,
245026,219557,
245105,219605,
245370,219727,
245384,219730,
245557,219785,
245365,219696,
245174,219569,
244405,219196,
243590,218748,
242394,218232,
241778,217927,
241096,217645,
240690,217432,
240192,217249,
240109,217198,
239901,217145,
240013,217207,
239990,217209,
240222,217314,
240271,217340,
240570,217469,
240645,217515,
240906,217625,
240941,217667,
241190,217747,
241168,217772,
241342,217816,
241275,217802,
241432,217857,
241367,217824,
241566,217915,
241557,217918,
241748,217982,
241709,217993,
241864,218029,
241799,218017,
241879,218027,
241741,217993,
241800,217997,
241669,217926,
241702,217945,
241618,217916,
241694,217937,
241650,217927,
241766,217979,
241745,217972,
241931,218054,
241927,218066,
242102,218141,
242153,218165,
242360,218270,
242416,218308,
242665,218416,
242769,218459,
242989,218561,
243078,218603,
243300,218683,
243330,218708,
243510,218778,
243531,218786,
243673,218859,
243709,218874,
243888,218928,
243929,218960,
244109,219045,
244133,219058,
244276,219126,
244285,219124,
244419,219169,
244414,219174,
244576,219230,
244598,219245,
244740,219289,
244798,219322,
244946,219403,
244993,219435,
245178,219487,
245253,219534,
245454,219599,
245522,219662,
245695,219726,
245786,219768,
245969,219831,
246015,219879,
246180,219939,
246224,219964,
246401,220007,
246373,220033,
246450,220032,
246311,219960,
246094,219835,
245479,219524,
244595,219064,
243445,218553,
242488,218105,
241789,217822,
241488,217671,
241113,217506,
240922,217447,
240829,217437,
240928,217490,
241005,217548,
241194,217632,
241360,217742,
241634,217840,
241827,217939,
242102,218043,
242288,218153,
242461,218208,
242569,218275,
242679,218287,
242711,218323,
242794,218357,
242855,218384,
242972,218442,
243099,218501,
243227,218525,
243271,218580,
243309,218556,
243253,218554,
243179,218476,
243036,218420,
242884,218327,
242700,218252,
242582,218173,
242444,218143,
242370,218094,
242316,218084,
242322,218075,
242341,218108,
242409,218140,
242542,218207,
242698,218250,
242884,218366,
243094,218458,
243322,218578,
243562,218653,
243799,218805,
244049,218895,
244308,219013,
244516,219084,
244706,219184,
244863,219238,
245003,219329,
245084,219327,
245189,219399,
245228,219381,
245318,219467,
245349,219425,
245401,219482,
245390,219442,
245446,219499,
245426,219446,
245477,219499,
245492,219484,
245562,219524,
245581,219501,
245671,219571,
245709,219574,
245798,219650,
245858,219638,
245962,219711,
245975,219698,
246086,219742,
246002,219689,
245901,219648,
245523,219428,
244896,219114,
243967,218678,
243011,218226,
242182,217859,
241768,217715,
241389,217516,
241115,217415,
240858,217305,
240883,217352,
240870,217338,
241070,217460,
241175,217478,
241424,217619,
241552,217672,
241824,217827,
241952,217844,
242209,217998,
242274,217999,
242470,218093,
242487,218099,
242666,218190,
242715,218184,
242983,218323,
243088,218364,
243337,218487,
243373,218486,
243514,218569,
243480,218516,
243538,218542,
243410,218467,
243431,218477,
243262,218392,
243285,218409,
243151,218333,
243255,218384,
243212,218344,
243365,218449,
243382,218440,
243605,218549,
243633,218533,
243877,218685,
243975,218714,
244266,218863,
244361,218889,
244679,219045,
244775,219072,
245070,219222,
245151,219225,
245400,219345,
245427,219351,
245664,219457,
245640,219452,
245842,219529,
245802,219518,
246000,219588,
245940,219571,
246119,219641,
246068,219624,
246225,219703,
246153,219655,
246316,219738,
246228,219690,
246361,219753,
246307,219717,
246421,219778,
246350,219741,
246460,219797,
246379,219765,
246539,219837,
246459,219803,
246601,219862,
246549,219835,
246707,219904,
246642,219866,
246788,219951,
246719,219925,
246889,219998,
246834,219949,
246986,220024,
246902,219978,
246974,220015,
246721,219877,
246581,219782,
245851,219413,
244993,219017,
243820,218435,
242917,218054,
242175,217744,
241921,217646,
241488,217482,
241369,217450,
241158,217345,
241299,217425,
241306,217433,
241535,217570,
241602,217593,
241908,217766,
241980,217789,
242276,217914,
242339,217946,
242595,218057,
242613,218064,
242810,218159,
242779,218128,
242970,218223,
242969,218222,
243202,218325,
243218,218326,
243460,218451,
243467,218450,
243658,218528,
243555,218468,
243637,218514,
243465,218445,
243544,218450,
243362,218369,
243437,218409,
243305,218356,
243433,218407,
243336,218373,
243493,218434,
243446,218417,
243641,218504,
243637,218517,
243899,218632,
243932,218660,
244241,218785,
244303,218819,
244611,218947,
244691,218986,
244975,219104,
245047,219154,
245333,219263,
245384,219287,
245648,219374,
245657,219408,
245849,219470,
245837,219474,
246013,219546,
245959,219544,
246144,219600,
246084,219562,
246264,219640,
246184,219624,
246339,219662,
246268,219640,
246388,219674,
246322,219667,
246452,219696,
246390,219662,
246514,219721,
246473,219696,
246609,219753,
246563,219741,
246683,219796,
246665,219761,
246807,219844,
246799,219842,
246920,219890,
246889,219870,
246973,219900,
246876,219851,
246815,219778,
246430,219604,
245911,219334,
244925,218865,
244054,218448,
243065,217992,
242501,217781,
242099,217629,
241953,217559,
241690,217464,
241683,217462,
241647,217473,
241819,217533,
241928,217592,
242178,217720,
242337,217813,
242624,217937,
242786,218023,
243059,218132,
243164,218190,
243364,218264,
243411,218303,
243603,218356,
243641,218386,
243855,218497,
243977,218563,
244207,218638,
244283,218676,
244435,218738,
244413,218731,
244472,218733,
244363,218694,
244334,218667,
244222,218599,
244181,218577,
244054,218538,
244052,218533,
243974,218495,
244055,218534,
244064,218551,
244196,218603,
244269,218647,
244475,218713,
244557,218763,
244780,218866,
244919,218919,
245115,219009,
245253,219077,
245464,219176,
245568,219216,
245728,219293,
245811,219302,
245929,219354,
245992,219406,
246118,219418,
246155,219455,
246254,219490,
246280,219499,
246343,219512,
246363,219534,
246425,219541,
246440,219573,
246495,219572,
246519,219595,
246565,219596,
246567,219611,
246625,219602,
246626,219612,
246664,219628,
246670,219652,
246710,219634,
246731,219676,
246792,219670,
246800,219697,
246857,219709,
246909,219744,
246995,219754,
247017,219801,
247091,219792,
247135,219829,
247136,219804,
247102,219804,
246944,219689,
246657,219557,
246117,219265,
245218,218839,
244234,218377,
243298,217967,
242638,217678,
242284,217564,
242053,217470,
241954,217456,
241865,217393,
241898,217459,
241953,217486,
242158,217590,
242315,217649,
242577,217809,
242780,217873,
243043,218006,
243202,218050,
243398,218167,
243496,218193,
243612,218278,
243694,218278,
243820,218362,
243918,218392,
244119,218505,
244269,218526,
244421,218630,
244471,218620,
244558,218688,
244512,218620,
244515,218632,
244439,218565,
244422,218586,
244322,218507,
244312,218538,
244222,218471,
244258,218494,
244217,218465,
244314,218527,
244322,218515,
244491,218623,
244564,218637,
244823,218750,
244882,218802,
245177,218903,
245269,218950,
245516,219051,
245594,219089,
245814,219192,
245871,219177,
246044,219279,
246077,219277,
246232,219363,
246213,219333,
246365,219408,
246329,219371,
246450,219458,
246419,219421,
246562,219477,
246526,219463,
246669,219535,
246619,219489,
246751,219552,
246698,219528,
246816,219581,
246744,219539,
246868,219608,
246808,219563,
246937,219617,
246856,219581,
246992,219661,
246932,219609,
247039,219674,
246985,219631,
247133,219704,
247080,219657,
247241,219750,
247194,219694,
247343,219785,
247275,219742,
247428,219817,
247354,219755,
247444,219808,
247223,219696,
247120,219641,
246586,219370,
245973,219073,
244864,218548,
244010,218175,
243074,217773,
242686,217623,
242316,217489,
242329,217507,
242170,217424,
242299,217513,
242292,217516,
242565,217649,
242650,217698,
243009,217864,
243151,217917,
243509,218092,
243620,218125,
243914,218270,
243946,218291,
244187,218377,
244170,218366,
244390,218469,
244417,218488,
244700,218608,
244764,218625,
245048,218764,
245060,218733,
245261,218849,
245190,218787,
245294,218841,
245147,218760,
245192,218767,
244999,218664,
245029,218706,
244851,218610,
244911,218635,
244802,218592,
244927,218656,
244900,218628,
245097,218738,
245119,218739,
245363,218847,
245393,218841,
245674,218970,
245729,218992,
245987,219119,
246023,219127,
246232,219225,
246228,219214,
246438,219293,
246374,219280,
246550,219343,
246512,219320,
246685,219403,
246638,219385,
246808,219447,
246751,219414,
246883,219477,
246798,219453,
246961,219497,
246882,219472,
247023,219525,
246932,219488,
247072,219538,
246980,219522,
247103,219565,
246991,219528,
247127,219593,
247029,219531,
247184,219586,
247072,219558,
247208,219597,
247109,219567,
247259,219616,
247178,219600,
247340,219649,
247253,219623,
247408,219676,
247343,219661,
247503,219705,
247425,219704,
247512,219712,
247294,219613,
247195,219544,
246674,219291,
246032,218970,
244952,218483,
244083,218082,
243177,217721,
242820,217570,
242449,217447,
242413,217414,
242269,217389,
242370,217426,
242363,217458,
242586,217572,
242730,217615,
243023,217760,
243186,217857,
243515,218007,
243657,218058,
243914,218178,
244006,218192,
244197,218300,
244226,218284,
244409,218370,
244483,218396,
244707,218519,
244813,218550,
245061,218656,
245093,218681,
245235,218699,
245168,218678,
245197,218685,
245040,218613,
245008,218588,
244831,218513,
244791,218486,
244620,218424,
244615,218398,
244530,218383,
244609,218411,
244610,218431,
244778,218476,
244835,218529,
245064,218625,
245207,218683,
245441,218779,
245575,218854,
245806,218947,
245916,218993,
246124,219073,
246177,219099,
246348,219138,
246378,219175,
246492,219212,
246518,219213,
246617,219250,
246599,219267,
246703,219276,
246686,219307,
246806,219322,
246793,219322,
246881,219344,
246861,219350,
246960,219372,
246919,219368,
246968,219375,
246962,219395,
247021,219384,
247003,219386,
247064,219393,
247016,219411,
247106,219414,
247107,219429,
247184,219443,
247213,219462,
247287,219490,
247326,219508,
247393,219510,
247413,219557,
247448,219546,
247369,219504,
247251,219419,
246957,219277,
246447,219010,
245629,218652,
244737,218234,
243850,217873,
243246,217600,
242859,217475,
242712,217410,
242673,217435,
242736,217449,
242824,217522,
243037,217606,
243248,217725,
243533,217829,
243791,217973,
244089,218108,
244346,218249,
244574,218298,
244790,218409,
244918,218448,
245102,218562,
245248,218597,
245457,218709,
245650,218767,
245832,218851,
245952,218887,
246048,218949,
246061,218925,
246071,218936,
245990,218860,
245917,218857,
245784,218770,
245695,218752,
245571,218663,
245511,218666,
245426,218610,
245437,218642,
245398,218609,
245488,218688,
245559,218688,
245730,218767,
245835,218808,
246016,218910,
246126,218930,
246308,219031,
246394,219032,
246545,219123,
246586,219111,
246727,219194,
246746,219184,
246863,219246,
246864,219221,
246978,219297,
246947,219257,
247041,219321,
247029,219280,
247139,219357,
247099,219297,
247214,219369,
247166,219333,
247266,219403,
247180,219341,
247276,219383,
247209,219350,
247304,219417,
247232,219365,
247339,219421,
247278,219356,
247401,219435,
247336,219402,
247475,219478,
247426,219431,
247569,219495,
247528,219468,
247649,219542,
247550,219467,
247548,219459,
247265,219315,
247031,219214,
246366,218869,
245575,218510,
244592,218077,
243897,217785,
243264,217511,
243036,217433,
242807,217344,
242899,217408,
242858,217398,
243089,217526,
243174,217566,
243493,217721,
243656,217791,
244012,217965,
244123,218030,
244467,218149,
244529,218167,
244797,218295,
244819,218301,
245070,218430,
245116,218437,
245401,218548,
245459,218573,
245734,218720,
245759,218716,
245964,218805,
245900,218743,
246006,218799,
245861,218722,
245887,218737,
245661,218634,
245659,218635,
245424,218520,
245447,218518,
245309,218463,
245415,218515,
245335,218464,
245494,218574,
245478,218541,
245692,218660,
245747,218648,
246030,218780,
246043,218780,
246300,218916,
246317,218907,
246546,218997,
246527,218984,
246725,219054,
246678,219028,
246881,219128,
246819,219078,
247017,219161,
246907,219128,
247067,219209,
247001,219167,
247150,219228,
247090,219188,
247206,219255,
247121,219188,
247256,219243,
247164,219196,
247301,219269,
247204,219215,
247311,219292,
247247,219226,
247360,219292,
247287,219232,
247443,219320,
247352,219258,
247515,219347,
247460,219305,
247621,219386,
247530,219341,
247679,219408,
247550,219345,
247573,219358,
247250,219186,
247024,219054,
246330,218722,
245559,218355,
244497,217892,
243777,217600,
243114,217313,
242901,217233,
242645,217156,
242746,217213,
242684,217214,
242926,217314,
242958,217363,
243303,217482,
243400,217563,
243772,217703,
243896,217780,
244223,217909,
244300,217946,
244542,218043,
244530,218048,
244763,218130,
244746,218122,
245016,218234,
245056,218290,
245360,218385,
245440,218427,
245654,218501,
245633,218497,
245786,218550,
245679,218506,
245757,218528,
245602,218465,
245592,218435,
245418,218374,
245406,218371,
245239,218298,
245286,218302,
245192,218288,
245344,218323,
245349,218344,
245581,218452,
245606,218461,
245844,218560,
245917,218581,
246115,218658,
246168,218694,
246348,218770,
246368,218788,
246559,218845,
246557,218846,
246706,218918,
246682,218905,
246819,218954,
246797,218944,
246910,218974,
246887,218972,
246989,219021,
246956,219008,
247051,219036,
246994,219013,
247092,219038,
247057,219029,
247131,219053,
247066,219033,
247153,219059,
247106,219042,
247212,219063,
247181,219071,
247285,219100,
247266,219098,
247378,219141,
247354,219131,
247463,219159,
247456,219170,
247531,219196,
247464,219188,
247463,219128,
247186,219016,
246892,218850,
246304,218580,
245505,218190,
244526,217764,
243773,217424,
243153,217178,
242861,217079,
242670,217016,
242704,217016,
242709,217050,
242883,217109,
242987,217191,
243227,217299,
243383,217386,
243673,217505,
243832,217591,
244090,217681,
244225,217776,
244436,217831,
244488,217872,
244631,217897,
244683,217948,
244853,218007,
244999,218080,
245224,218175,
245392,218252,
245576,218323,
245667,218377,
245747,218379,
245745,218391,
245747,218362,
245684,218330,
245647,218306,
245573,218287,
245535,218252,
245474,218241,
245450,218223,
245450,218241,
245498,218245,
245558,218291,
245667,218315,
245780,218374,
245912,218417,
246038,218491,
246191,218527,
246292,218591,
246406,218609,
246478,218685,
246583,218682,
246655,218737,
246736,218759,
246791,218797,
246836,218790,
246902,218823,
246940,218819,
246993,218878,
247022,218853,
247063,218904,
247079,218880,
247133,218937,
247151,218904,
247214,218959,
247184,218923,
247247,218962,
247211,218926,
247264,218974,
247255,218927,
247288,218985,
247317,218960,
247358,219023,
247366,218995,
247429,219024,
247451,219009,
247537,219066,
247536,219050,
247615,219111,
247600,219091,
247672,219116,
247547,219009,
247393,218951,
246965,218734,
246489,218509,
245571,218051,
244647,217672,
243740,217267,
243189,217064,
242809,216881,
242703,216892,
242607,216831,
242709,216912,
242728,216935,
243021,217061,
243109,217102,
243421,217255,
243554,217315,
243877,217482,
244020,217507,
244289,217654,
244345,217661,
244569,217762,
244574,217746,
244768,217861,
244828,217869,
245056,217978,
245184,218023,
245446,218143,
245531,218172,
245749,218270,
245734,218238,
245841,218292,
245732,218235,
245782,218258,
245633,218175,
245636,218195,
245494,218091,
245505,218106,
245373,218045,
245492,218112,
245413,218070,
245592,218143,
245571,218140,
245798,218255,
245825,218256,
246035,218356,
246072,218342,
246312,218463,
246309,218440,
246514,218548,
246491,218526,
246687,218611,
246625,218577,
246807,218665,
246750,218618,
246932,218722,
246862,218661,
247026,218742,
246952,218718,
247099,218777,
247018,218754,
247146,218794,
247060,218753,
247202,218810,
247116,218775,
247280,218833,
247168,218776,
247324,218860,
247246,218815,
247357,218871,
247271,218809,
247394,218878,
247317,218832,
247476,218897,
247398,218850,
247552,218935,
247471,218906,
247646,218969,
247578,218926,
247726,219000,
247629,218935,
247760,219011,
247600,218921,
247511,218875,
247010,218604,
246545,218398,
245659,217950,
244789,217603,
243873,217177,
243336,216958,
242900,216779,
242824,216789,
242699,216735,
242865,216836,
242870,216826,
243167,216977,
243272,217032,
243607,217215,
243745,217257,
244099,217407,
244205,217458,
244515,217589,
244557,217608,
244827,217721,
244853,217725,
245094,217828,
245127,217828,
245408,217971,
245494,217998,
245773,218125,
245823,218144,
246044,218240,
245994,218212,
246120,218253,
245976,218196,
246064,218228,
245902,218168,
245970,218157,
245800,218104,
245892,218130,
245754,218082,
245877,218123,
245777,218104,
245955,218169,
245899,218156,
246102,218250,
246097,218245,
246301,218339,
246277,218340,
246507,218395,
246464,218415,
246660,218465,
246631,218476,
246798,218532,
246771,218540,
246922,218583,
246877,218576,
247037,218630,
246969,218628,
247104,218658,
247037,218640,
247168,218676,
247094,218672,
247225,218715,
247149,218689,
247256,218711,
247206,218697,
247291,218745,
247251,218730,
247349,218748,
247275,218713,
247370,218752,
247331,218724,
247393,218782,
247388,218768,
247469,218805,
247445,218784,
247553,218822,
247514,218806,
247619,218852,
247625,218840,
247711,218895,
247678,218860,
247745,218896,
247606,218816,
247469,218739,
247036,218533,
246568,218301,
245713,217898,
244834,217504,
243985,217127,
243400,216886,
242982,216724,
242859,216683,
242767,216683,
242880,216725,
242940,216769,
243146,216863,
243279,216956,
243575,217061,
243761,217160,
244076,217303,
244233,217382,
244469,217468,
244571,217523,
244729,217577,
244794,217624,
244947,217662,
245022,217718,
245220,217807,
245387,217889,
245632,217981,
245714,218034,
245903,218089,
245924,218101,
246010,218121,
245960,218116,
245949,218084,
245886,218070,
245876,218049,
245789,217993,
245790,218000,
245732,217991,
245784,217989,
245765,218017,
245838,218038,
245910,218052,
246016,218092,
246098,218156,
246247,218198,
246336,218243,
246448,218284,
246528,218333,
246630,218367,
246700,218411,
246789,218400,
246832,218476,
246925,218489,
246943,218511,
247039,218529,
247040,218546,
247095,218545,
247109,218575,
247167,218577,
247175,218607,
247214,218601,
247226,218635,
247267,218622,
247289,218636,
247304,218635,
247355,218661,
247354,218644,
247386,218690,
247411,218673,
247427,218714,
247455,218686,
247477,218728,
247486,218719,
247544,218741,
247545,218714,
247587,218762,
247600,218736,
247677,218788,
247665,218755,
247717,218819,
247711,218795,
247797,218872,
247794,218819,
247873,218887,
247871,218857,
247938,218895,
247872,218833,
247760,218799,
247439,218614,
247033,218430,
246351,218082,
245419,217686,
244454,217230,
243677,216913,
243096,216664,
242863,216591,
242684,216520,
242721,216557,
242713,216558,
242889,216663,
242970,216691,
243210,216816,
243357,216869,
243601,217016,
243746,217057,
244016,217194,
244085,217203,
244271,217298,
244265,217252,
244379,217350,
244362,217301,
244504,217409,
244538,217385,
244790,217528,
244883,217547,
245142,217699,
245245,217710,
245478,217817,
245492,217808,
245642,217897,
245589,217849,
245662,217888,
245563,217832,
245602,217862,
245494,217806,
245545,217828,
245460,217792,
245544,217849,
245490,217799,
245673,217899,
245662,217888,
245878,217995,
245896,217983,
246104,218091,
246133,218091,
246348,218205,
246347,218188,
246545,218280,
246523,218256,
246711,218342,
246671,218306,
246856,218399,
246788,218368,
246951,218448,
246886,218402,
247056,218494,
246994,218452,
247135,218522,
247050,218474,
247191,218545,
247125,218490,
247251,218585,
247191,218524,
247301,218604,
247220,218549,
247369,218621,
247291,218574,
247451,218644,
247355,218590,
247505,218662,
247413,218626,
247561,218682,
247487,218648,
247607,218715,
247525,218658,
247687,218741,
247591,218682,
247721,218749,
247644,218698,
247787,218777,
247712,218723,
247845,218804,
247753,218745,
247905,218816,
247841,218768,
247995,218835,
247914,218787,
248066,218875,
247957,218808,
248056,218873,
247844,218755,
247753,218694,
247249,218430,
246819,218231,
245842,217776,
244937,217383,
243968,216922,
243416,216721,
242936,216507,
242841,216499,
242681,216431,
242793,216510,
242795,216522,
243034,216632,
243109,216661,
243439,216835,
243515,216862,
243827,217000,
243878,217044,
244156,217165,
244177,217162,
244388,217258,
244344,217227,
244516,217326,
244448,217265,
244638,217354,
244619,217362,
244904,217469,
244931,217502,
245204,217622,
245254,217643,
245507,217766,
245461,217737,
245631,217805,
245549,217773,
245672,217830,
245512,217754,
245578,217775,
245417,217711,
245510,217749,
245371,217696,
245510,217744,
245431,217725,
245625,217802,
245583,217816,
245821,217888,
245861,217918,
246089,218028,
246118,218041,
246335,218111,
246337,218125,
246550,218211,
246543,218208,
246721,218289,
246682,218274,
246855,218338,
246808,218333,
246956,218382,
246902,218374,
247037,218398,
246986,218401,
247101,218460,
247058,218426,
247196,218473,
247125,218438,
247229,218504,
247172,218484,
247291,218529,
247260,218497,
247362,218552,
247311,218538,
247415,218564,
247366,218548,
247465,218608,
247432,218575,
247551,218626,
247495,218603,
247598,218663,
247576,218626,
247697,218671,
247634,218674,
247749,218710,
247696,218703,
247809,218723,
247762,218727,
247854,218744,
247825,218729,
247916,218785,
247896,218776,
247975,218801,
247934,218774,
248044,218830,
248006,218828,
248122,218855,
248070,218852,
248182,218869,
248127,218868,
248162,218860,
247991,218803,
247781,218666,
247313,218446,
246707,218123,
245631,217643,
244675,217208,
243797,216833,
243273,216623,
242904,216483,
242785,216451,
242686,216420,
242770,216449,
242768,216477,
242941,216555,
243045,216613,
243250,216715,
243379,216788,
243609,216863,
243709,216931,
243895,216995,
243940,217038,
244043,217069,
244040,217076,
244102,217099,
244086,217099,
244197,217124,
244248,217172,
244427,217232,
244560,217308,
244746,217370,
244845,217445,
244966,217466,
245036,217518,
245101,217510,
245096,217535,
245075,217502,
245050,217503,
245031,217466,
244979,217486,
244976,217449,
244986,217459,
245039,217467,
245085,217519,
245178,217537,
245262,217594,
245416,217641,
245568,217723,
245731,217790,
245889,217876,
246104,217947,
246260,218034,
246397,218075,
246517,218147,
246618,218161,
246716,218217,
246788,218231,
246852,218274,
246903,218281,
246980,218328,
247026,218308,
247083,218371,
247096,218352,
247138,218392,
247162,218376,
247217,218420,
247226,218394,
247265,218454,
247272,218432,
247328,218486,
247323,218454,
247382,218503,
247384,218473,
247445,218516,
247458,218492,
247519,218548,
247490,218516,
247567,218573,
247581,218567,
247624,218599,
247628,218558,
247693,218626,
247685,218591,
247764,218660,
247740,218621,
247801,218673,
247782,218639,
247857,218692,
247825,218654,
247906,218705,
247876,218675,
247956,218722,
247948,218703,
248033,218764,
247993,218715,
248108,218795,
248069,218754,
248173,218816,
248052,218738,
248019,218733,
247716,218535,
247425,218410,
246672,218048,
245768,217633,
244711,217131,
243960,216844,
243342,216556,
243081,216488,
242827,216385,
242869,216429,
242771,216400,
242960,216479,
242982,216492,
243231,216616,
243286,216649,
243574,216770,
243641,216807,
243892,216927,
243952,216947,
244156,217027,
244130,217016,
244303,217101,
244256,217056,
244399,217162,
244394,217123,
244609,217229,
244653,217245,
244891,217368,
244901,217358,
245108,217468,
245073,217442,
245223,217494,
245117,217422,
245209,217502,
245057,217417,
245123,217450,
244965,217363,
245033,217417,
244926,217338,
245037,217410,
244984,217377,
245134,217465,
245120,217454,
245338,217558,
245364,217557,
245600,217694,
245651,217684,
245925,217813,
245970,217818,
246202,217930,
246234,217936,
246467,218050,
246466,218025,
246662,218112,
246647,218104,
246808,218166,
246765,218132,
246935,218232,
246854,218198,
247035,218271,
246951,218220,
247108,218296,
247048,218252,
247182,218333,
247094,218278,
247229,218364,
247147,218307,
247283,218388,
247209,218337,
247340,218416,
247263,218348,
247400,218428,
247320,218364,
247459,218451,
247394,218392,
247517,218476,
247444,218414,
247596,218501,
247523,218445,
247673,218517,
247576,218461,
247707,218530,
247630,218495,
247757,218561,
247694,218500,
247831,218595,
247741,218547,
247877,218603,
247808,218580,
247966,218650,
247880,218618,
248050,218682,
247931,218637,
248052,218676,
247886,218607,
247860,218568,
247485,218370,
247094,218199,
246148,217734,
245264,217342,
244218,216904,
243651,216674,
243100,216454,
242965,216408,
242753,216334,
242855,216370,
242769,216371,
243009,216457,
243022,216467,
243315,216608,
243365,216660,
243682,216757,
243744,216829,
244042,216929,
244064,216938,
244291,217023,
244238,217039,
244445,217091,
244392,217086,
244593,217164,
244604,217175,
244878,217289,
244926,217299,
245137,217410,
245132,217413,
245317,217468,
245266,217441,
245362,217490,
245255,217433,
245295,217426,
245152,217375,
245177,217386,
245030,217334,
245086,217347,
245001,217327,
245096,217376,
245087,217358,
245225,217412,
245236,217429,
245433,217512,
245482,217540,
245722,217625,
245775,217668,
246009,217758,
246068,217805,
246245,217892,
246294,217890,
246466,217966,
246491,217962,
246618,218037,
246605,218019,
246744,218064,
246723,218065,
246836,218114,
246810,218097,
246904,218130,
246878,218129,
246983,218167,
246933,218152,
247028,218192,
246967,218167,
247077,218196,
247017,218188,
247112,218221,
247082,218215,
247157,218237,
247113,218229,
247210,218261,
247209,218260,
247272,218280,
247242,218278,
247318,218299,
247275,218300,
247374,218327,
247341,218315,
247428,218334,
247398,218340,
247479,218373,
247464,218379,
247570,218408,
247536,218426,
247629,218437,
247618,218448,
247708,218465,
247688,218483,
247733,218475,
247628,218441,
247528,218372,
247172,218196,
246699,217931,
245780,217544,
244919,217140,
244015,216787,
243421,216517,
242998,216364,
242819,216294,
242707,216256,
242714,216270,
242743,216299,
242872,216351,
242994,216421,
243157,216485,
243310,216569,
243477,216616,
243629,216712,
243767,216751,
243892,216835,
244027,216863,
244078,216909,
244134,216924,
244213,216966,
244302,216983,
244416,217055,
244595,217103,
244690,217177,
244794,217184,
244859,217239,
244911,217230,
244876,217227,
244807,217183,
244724,217155,
244636,217094,
244542,217072,
244470,217031,
244441,217023,
244443,217012,
244488,217058,
244520,217054,
244602,217122,
244708,217137,
244854,217217,
244942,217241,
245107,217340,
245238,217362,
245395,217462,
245517,217497,
245675,217582,
245795,217623,
245943,217725,
246024,217724,
246151,217784,
246220,217777,
246302,217855,
246332,217843,
246443,217911,
246471,217910,
246573,217951,
246589,217938,
246639,218009,
246681,217957,
246708,218040,
246710,217988,
246778,218033,
246763,218013,
246853,218048,
246806,218010,
246877,218083,
246873,218042,
246946,218088,
246938,218055,
246994,218104,
246963,218073,
247055,218130,
247019,218097,
247128,218180,
247106,218127,
247229,218192,
247203,218162,
247343,218255,
247317,218215,
247462,218282,
247420,218234,
247534,218317,
247434,218255,
247456,218250,
247149,218093,
246873,217972,
246156,217596,
245376,217275,
244377,216844,
243714,216589,
243110,216322,
242895,216276,
242630,216161,
242674,216213,
242616,216171,
242757,216264,
242774,216271,
243014,216409,
243091,216399,
243365,216547,
243447,216573,
243710,216694,
243719,216684,
243926,216796,
243889,216744,
244024,216821,
243980,216804,
244185,216897,
244182,216888,
244437,217015,
244480,217018,
244732,217117,
244699,217096,
244825,217171,
244726,217103,
244798,217145,
244645,217054,
244668,217082,
244501,216989,
244545,217026,
244380,216938,
244451,217000,
244362,216937,
244512,217015,
244476,216980,
244667,217097,
244676,217072,
244917,217205,
244948,217207,
245215,217325,
245243,217333,
245499,217451,
245531,217432,
245790,217565,
245801,217556,
246039,217667,
246030,217651,
246220,217747,
246213,217720,
246390,217815,
246336,217784,
246501,217874,
246471,217831,
246638,217901,
246562,217869,
246736,217947,
246655,217907,
246810,217963,
246730,217919,
246881,217983,
246791,217945,
246940,218022,
246837,217944,
246985,218021,
246897,217949,
247022,218055,
246944,217992,
247083,218058,
246999,218005,
247148,218089,
247078,218065,
247236,218120,
247178,218084,
247366,218171,
247294,218132,
247462,218205,
247368,218148,
247434,218200,
247202,218068,
247068,218009,
246515,217736,
245834,217440,
244845,216981,
244069,216683,
243302,216351,
242971,216239,
242597,216083,
242598,216103,
242460,216056,
242605,216134,
242566,216125,
242839,216250,
242846,216261,
243144,216404,
243193,216416,
243472,216548,
243501,216554,
243771,216664,
243763,216673,
243962,216742,
243910,216743,
244114,216812,
244094,216807,
244343,216916,
244369,216939,
244624,217030,
244627,217030,
244842,217110,
244756,217067,
244851,217092,
244645,217030,
244684,217028,
244502,216956,
244507,216971,
244334,216884,
244422,216906,
244310,216864,
244437,216935,
244361,216923,
244573,216973,
244543,216984,
244812,217077,
244813,217099,
245074,217202,
245115,217221,
245357,217328,
245401,217349,
245638,217450,
245714,217479,
245917,217558,
245949,217564,
246119,217638,
246102,217632,
246262,217679,
246216,217668,
246358,217727,
246325,217731,
246459,217771,
246431,217762,
246529,217801,
246494,217765,
246584,217809,
246522,217791,
246604,217821,
246558,217782,
246647,217814,
246584,217814,
246708,217863,
246676,217838,
246770,217874,
246736,217871,
246865,217916,
246840,217909,
246979,217950,
246962,217959,
247097,218008,
247092,217996,
247177,218022,
247087,217978,
247037,217962,
246720,217795,
246323,217610,
245500,217228,
244695,216863,
243749,216460,
243184,216236,
242671,216059,
242503,215989,
242331,215913,
242350,215948,
242308,215950,
242423,215993,
242467,216034,
242678,216122,
242749,216169,
242959,216250,
243055,216302,
243271,216368,
243329,216400,
243456,216463,
243470,216462,
243564,216479,
243565,216509,
243740,216568,
243806,216607,
244040,216700,
244168,216762,
244370,216843,
244448,216881,
244570,216905,
244481,216885,
244505,216855,
244358,216810,
244321,216785,
244195,216731,
244157,216705,
244081,216689,
244104,216690,
244085,216683,
244180,216699,
244222,216750,
244368,216795,
244480,216874,
244652,216920,
244800,217008,
244977,217047,
245129,217135,
245321,217220,
245472,217275,
245646,217337,
245764,217393,
245897,217435,
245994,217488,
246098,217513,
246153,217551,
246259,217568,
246296,217608,
246352,217598,
246398,217627,
246443,217652,
246449,217675,
246529,217672,
246509,217685,
246558,217677,
246556,217703,
246590,217695,
246601,217713,
246679,217702,
246671,217755,
246746,217747,
246785,217782,
246853,217784,
246883,217816,
246952,217816,
246987,217864,
247037,217861,
247013,217873,
246869,217751,
246607,217664,
246067,217368,
245298,217067,
244347,216614,
243509,216283,
242857,216007,
242475,215883,
242220,215756,
242111,215751,
242038,215680,
242060,215747,
242062,215741,
242209,215824,
242316,215839,
242473,215970,
242623,215998,
242791,216088,
242884,216112,
243005,216204,
243044,216164,
243144,216228,
243148,216225,
243240,216286,
243300,216283,
243474,216401,
243594,216409,
243783,216525,
243861,216536,
244005,216591,
243975,216565,
244008,216594,
243919,216526,
243875,216526,
243746,216422,
243719,216448,
243575,216362,
243590,216383,
243491,216326,
243571,216382,
243520,216361,
243658,216446,
243689,216429,
243865,216529,
243940,216539,
244177,216659,
244252,216681,
244530,216813,
244588,216823,
244814,216949,
244882,216948,
245107,217048,
245162,217062,
245358,217152,
245367,217134,
245526,217226,
245540,217201,
245688,217298,
245661,217242,
245813,217332,
245762,217282,
245924,217358,
245877,217326,
245997,217388,
245936,217352,
246079,217423,
246030,217381,
246180,217459,
246139,217409,
246317,217517,
246293,217488,
246460,217569,
246442,217542,
246588,217611,
246499,217557,
246551,217589,
246268,217448,
246025,217321,
245242,216962,
244492,216623,
243465,216180,
242839,215946,
242245,215669,
242038,215613,
241756,215496,
241729,215507,
241555,215420,
241667,215504,
241622,215467,
241855,215591,
241856,215595,
242114,215712,
242129,215704,
242357,215809,
242341,215801,
242517,215880,
242451,215844,
242596,215917,
242523,215880,
242732,215987,
242736,215973,
243009,216100,
243080,216124,
243325,216237,
243323,216222,
243505,216297,
243395,216248,
243481,216273,
243301,216189,
243343,216218,
243155,216125,
243212,216154,
243053,216071,
243133,216126,
243056,216073,
243185,216142,
243156,216123,
243346,216219,
243357,216211,
243614,216331,
243653,216344,
243957,216499,
244021,216503,
244325,216642,
244375,216657,
244679,216795,
244733,216790,
244983,216915,
244977,216889,
245207,217008,
245213,216985,
245443,217085,
245408,217051,
245618,217161,
245571,217123,
245751,217202,
245683,217182,
245865,217239,
245778,217193,
245910,217286,
245848,217213,
245989,217298,
245931,217250,
246099,217345,
246081,217315,
246280,217415,
246222,217374,
246435,217453,
246355,217426,
246508,217479,
246338,217387,
246264,217363,
245789,217109,
245184,216853,
244171,216379,
243332,216028,
242477,215669,
242113,215547,
241724,215381,
241645,215351,
241396,215255,
241457,215294,
241391,215268,
241588,215362,
241596,215384,
241846,215481,
241853,215495,
242118,215616,
242119,215615,
242343,215699,
242307,215695,
242505,215767,
242424,215753,
242601,215834,
242608,215818,
242851,215940,
242915,215977,
243194,216090,
243245,216119,
243485,216227,
243435,216185,
243570,216219,
243416,216167,
243459,216165,
243275,216085,
243310,216092,
243138,216025,
243217,216046,
243085,215998,
243224,216044,
243162,216032,
243327,216105,
243334,216119,
243590,216218,
243629,216249,
243914,216369,
244021,216418,
244303,216534,
244413,216585,
244695,216706,
244786,216726,
245038,216826,
245104,216840,
245331,216954,
245356,216957,
245533,217021,
245514,217028,
245650,217079,
245637,217080,
245785,217140,
245773,217118,
245900,217159,
245851,217155,
245960,217198,
245914,217167,
246018,217224,
245996,217196,
246125,217248,
246113,217240,
246229,217296,
246241,217270,
246352,217344,
246363,217323,
246483,217380,
246463,217363,
246524,217376,
246367,217304,
246197,217219,
245698,216973,
245011,216644,
243989,216202,
243105,215803,
242323,215505,
241978,215367,
241682,215261,
241588,215220,
241432,215165,
241465,215192,
241500,215185,
241653,215284,
241755,215329,
241974,215413,
242071,215493,
242294,215576,
242370,215620,
242543,215674,
242573,215697,
242712,215738,
242720,215768,
242842,215785,
242901,215855,
243127,215930,
243297,216038,
243602,216135,
243743,216240,
243948,216278,
243968,216292,
244028,216313,
243971,216271,
243964,216265,
243834,216212,
243816,216201,
243713,216149,
243784,216165,
243750,216172,
243832,216205,
243849,216227,
244022,216277,
244131,216338,
244338,216436,
244486,216502,
244717,216591,
244865,216666,
245085,216741,
245195,216797,
245386,216863,
245457,216908,
245628,216954,
245687,216996,
245805,217036,
245841,217057,
245951,217089,
245981,217114,
246042,217122,
246081,217142,
246136,217137,
246144,217177,
246198,217173,
246181,217183,
246217,217182,
246232,217203,
246269,217200,
246271,217219,
246316,217208,
246344,217257,
246414,217251,
246448,217301,
246531,217302,
246538,217337,
246632,217353,
246653,217377,
246688,217366,
246675,217373,
246547,217287,
246274,217169,
245732,216895,
244808,216508,
243811,216054,
242863,215670,
242246,215402,
241877,215263,
241671,215164,
241529,215143,
241436,215088,
241426,215116,
241508,215128,
241605,215218,
241735,215246,
241869,215326,
241986,215361,
242107,215446,
242203,215466,
242313,215526,
242363,215518,
242415,215563,
242446,215554,
242550,215656,
242669,215662,
242829,215783,
242993,215802,
243199,215947,
243337,215952,
243483,216045,
243490,216031,
243523,216040,
243453,215985,
243419,216010,
243295,215930,
243243,215936,
243162,215866,
243125,215896,
243069,215830,
243113,215885,
243112,215847,
243232,215935,
243297,215958,
243460,216048,
243603,216077,
243784,216187,
243924,216233,
244151,216332,
244285,216382,
244499,216499,
244587,216505,
244807,216642,
244900,216634,
245087,216746,
245135,216750,
245317,216826,
245360,216817,
245531,216910,
245543,216910,
245673,216990,
245680,216934,
245806,217016,
245751,216971,
245866,217037,
245837,217009,
245958,217058,
245900,217031,
246035,217108,
245985,217046,
246124,217130,
246053,217080,
246202,217160,
246196,217137,
246357,217215,
246329,217190,
246499,217278,
246486,217255,
246612,217336,
246519,217270,
246518,217285,
246152,217080,
245698,216869,
244664,216388,
243698,215955,
242666,215520,
242128,215309,
241665,215098,
241475,215022,
241141,214887,
241138,214892,
241023,214836,
241175,214957,
241185,214927,
241407,215051,
241437,215042,
241638,215169,
241659,215156,
241872,215281,
241834,215217,
241993,215340,
241961,215301,
242098,215380,
242071,215327,
242242,215457,
242290,215451,
242581,215613,
242657,215621,
242931,215750,
242952,215748,
243148,215839,
243082,215792,
243168,215858,
243054,215750,
243103,215788,
242929,215702,
242970,215741,
242814,215655,
242905,215720,
242807,215651,
242961,215724,
242889,215710,
243109,215817,
243106,215787,
243367,215912,
243415,215932,
243692,216059,
243772,216091,
244039,216209,
244115,216237,
244391,216349,
244460,216354,
244709,216489,
244728,216490,
244987,216615,
244999,216587,
245213,216710,
245193,216684,
245401,216775,
245382,216758,
245585,216851,
245540,216822,
245719,216911,
245651,216867,
245832,216946,
245739,216912,
245899,216969,
245792,216909,
245953,217000,
245877,216938,
246030,217024,
245958,216974,
246161,217057,
246129,217038,
246316,217138,
246268,217095,
246474,217198,
246405,217149,
246593,217235,
246527,217185,
246593,217229,
246315,217070,
246058,216959,
245218,216547,
244287,216148,
243100,215582,
242382,215314,
241763,215033,
241548,214974,
241178,214805,
241103,214802,
240955,214723,
241090,214814,
241061,214802,
241295,214905,
241328,214905,
241567,215034,
241607,215051,
241860,215167,
241844,215148,
242055,215246,
241990,215210,
242154,215292,
242094,215259,
242274,215361,
242292,215352,
242586,215493,
242663,215531,
243007,215683,
243062,215710,
243312,215808,
243285,215789,
243398,215844,
243268,215790,
243346,215799,
243178,215741,
243260,215756,
243063,215679,
243169,215703,
243038,215677,
243196,215740,
243148,215719,
243356,215813,
243386,215811,
243649,215940,
243716,215981,
244028,216097,
244146,216152,
244472,216283,
244561,216334,
244872,216457,
244900,216483,
245178,216577,
245200,216592,
245442,216686,
245445,216694,
245648,216764,
245643,216767,
245810,216838,
245780,216825,
245927,216884,
245901,216876,
246062,216934,
245994,216915,
246147,216966,
246088,216943,
246219,217004,
246162,216983,
246265,217025,
246224,216980,
246330,217043,
246285,217028,
246401,217064,
246366,217056,
246503,217106,
246460,217091,
246631,217150,
246604,217140,
246734,217187,
246741,217208,
246867,217241,
246846,217228,
246923,217264,
246746,217186,
246592,217103,
246112,216856,
245433,216528,
244310,216015,
243302,215587,
242424,215218,
241986,215051,
241637,214915,
241542,214878,
241361,214810,
241386,214833,
241383,214830,
241525,214910,
241609,214937,
241819,215054,
241902,215087,
242142,215197,
242222,215224,
242400,215294,
242430,215331,
242569,215362,
242605,215401,
242739,215465,
242824,215500,
243050,215596,
243207,215683,
243516,215802,
243679,215889,
243932,215980,
243950,216015,
244098,216031,
244017,216012,
244061,216012,
243956,215964,
243928,215941,
243797,215900,
243770,215876,
243698,215847,
243722,215856,
243703,215846,
243838,215910,
243900,215952,
244093,216013,
244203,216092,
244420,216170,
244577,216252,
244826,216335,
244976,216426,
245230,216502,
245354,216563,
245562,216646,
245631,216683,
245786,216745,
245840,216775,
245952,216804,
245981,216828,
246092,216859,
246117,216896,
246197,216913,
246227,216939,
246301,216938,
246298,216961,
246370,216973,
246371,216996,
246410,216998,
246431,217020,
246468,217020,
246471,217043,
246523,217031,
246535,217051,
246585,217059,
246572,217088,
246654,217086,
246667,217118,
246719,217114,
246781,217145,
246841,217173,
246879,217204,
246960,217224,
246983,217251,
247040,217258,
247039,217270,
247023,217231,
246872,217171,
246577,217013,
246037,216761,
245109,216323,
244044,215859,
243044,215398,
242369,215156,
241988,214987,
241788,214919,
241664,214860,
241607,214858,
241602,214849,
241680,214930,
241804,214960,
241973,215060,
242128,215101,
242293,215227,
242454,215269,
242612,215358,
242740,215383,
242841,215464,
242909,215460,
243053,215555,
243129,215573,
243299,215681,
243454,215733,
243714,215862,
243871,215912,
244047,216029,
244108,216031,
244199,216077,
244161,216036,
244139,216029,
243995,215951,
243895,215925,
243734,215822,
243623,215803,
243515,215724,
243450,215729,
243406,215672,
243460,215728,
243473,215726,
243638,215816,
243730,215857,
243956,215972,
244074,216014,
244322,216127,
244443,216160,
244680,216299,
244789,216318,
244993,216452,
245076,216446,
245259,216553,
245314,216560,
245484,216668,
245512,216638,
245705,216774,
245698,216724,
245823,216788,
245773,216768,
245893,216826,
245823,216775,
245942,216864,
245881,216808,
246002,216902,
245951,216848,
246090,216924,
246036,216890,
246140,216966,
246083,216900,
246205,217000,
246163,216937,
246276,217020,
246242,216985,
246369,217051,
246331,217028,
246469,217112,
246447,217077,
246617,217161,
246588,217136,
246742,217210,
246713,217184,
246868,217276,
246800,217219,
246877,217261,
246687,217141,
246460,217038,
245738,216664,
244911,216292,
243768,215748,
242993,215441,
242299,215136,
242025,215053,
241640,214883,
241563,214847,
241307,214727,
241372,214769,
241267,214740,
241486,214821,
241465,214828,
241699,214958,
241734,214949,
241988,215077,
242001,215073,
242221,215189,
242233,215171,
242428,215273,
242408,215259,
242629,215342,
242642,215360,
242931,215494,
243027,215528,
243366,215702,
243475,215750,
243758,215869,
243772,215858,
243912,215916,
243789,215854,
243874,215893,
243671,215793,
243688,215804,
243501,215717,
243536,215733,
243381,215661,
243464,215714,
243345,215643,
243506,215729,
243463,215688,
243667,215818,
243713,215814,
243974,215936,
244041,215959,
244321,216085,
244372,216123,
244654,216261,
244703,216250,
244970,216386,
245021,216379,
245280,216503,
245296,216507,
245524,216618,
245527,216598,
245744,216707,
245747,216695,
245916,216780,
245873,216757,
246046,216835,
245983,216783,
246143,216872,
246081,216841,
246236,216917,
246169,216877,
246316,216940,
246247,216904,
246378,216971,
246312,216915,
246440,216992,
246384,216957,
246522,217030,
246458,216983,
246636,217073,
246559,217025,
246720,217112,
246659,217073,
246814,217154,
246769,217123,
246941,217202,
246880,217169,
247052,217253,
246978,217228,
247162,217283,
247048,217260,
247124,217274,
246846,217136,
246611,217004,
245793,216620,
244901,216191,
243691,215663,
242925,215334,
242247,215055,
242003,214980,
241672,214853,
241637,214818,
241427,214740,
241526,214778,
241473,214782,
241686,214881,
241718,214906,
241957,215013,
241997,215048,
242228,215144,
242231,215149,
242432,215234,
242414,215214,
242584,215288,
242556,215287,
242736,215361,
242758,215378,
243041,215510,
243142,215578,
243434,215685,
243504,215718,
243710,215806,
243715,215799,
243829,215825,
243715,215780,
243769,215800,
243611,215733,
243611,215710,
243395,215618,
243398,215634,
243291,215580,
243343,215611,
243310,215595,
243443,215672,
243470,215679,
243669,215775,
243753,215805,
243976,215907,
244092,215949,
244330,216070,
244470,216145,
244769,216267,
244898,216310,
245154,216425,
245255,216460,
245461,216543,
245549,216572,
245718,216656,
245771,216714,
245931,216744,
245964,216757,
246079,216813,
246070,216811,
246200,216843,
246168,216854,
246258,216881,
246247,216866,
246329,216913,
246301,216890,
246405,216928,
246392,216931,
246479,216959,
246475,216975,
246575,217015,
246554,217004,
246661,217045,
246635,217041,
246726,217051,
246723,217064,
246818,217094,
246815,217111,
246922,217132,
246911,217158,
247020,217192,
247029,217207,
247155,217237,
247137,217258,
247258,217291,
247264,217294,
247312,217297,
247230,217260,
247105,217191,
246729,216996,
246130,216697,
245059,216247,
244037,215752,
243063,215364,
242491,215140,
242100,214999,
241963,214935,
241792,214878,
241743,214850,
241724,214862,
241811,214888,
241893,214967,
242052,215024,
242215,215112,
242373,215172,
242528,215236,
242674,215292,
242783,215358,
242910,215389,
242975,215464,
243083,215480,
243159,215538,
243322,215571,
243470,215670,
243705,215764,
243894,215858,
244090,215923,
244225,215997,
244336,216010,
244361,216040,
244349,216014,
244282,215982,
244220,215933,
244124,215917,
244063,215863,
243991,215853,
243917,215784,
243855,215798,
243841,215775,
243902,215837,
244010,215858,
244138,215945,
244289,215975,
244465,216095,
244649,216138,
244838,216250,
245029,216298,
245249,216409,
245424,216477,
245605,216578,
245759,216606,
245912,216712,
246000,216724,
246130,216803,
246168,216784,
246282,216868,
246310,216847,
246404,216916,
246421,216883,
246511,216959,
246507,216912,
246575,216976,
246574,216946,
246654,217009,
246635,216966,
246718,217038,
246720,217008,
246790,217065,
246779,217021,
246877,217096,
246876,217054,
246945,217123,
246946,217082,
247042,217157,
247025,217123,
247117,217199,
247098,217148,
247216,217209,
247204,217186,
247316,217260,
247265,217203,
247395,217290,
247376,217271,
247471,217317,
247455,217304,
247574,217368,
247536,217321,
247652,217397,
247545,217321,
247548,217321,
247254,217144,
246958,217025,
246177,216646,
245260,216244,
244133,215736,
243335,215441,
242721,215177,
242461,215119,
242209,215000,
242248,215032,
242124,214971,
242281,215081,
242277,215056,
242496,215181,
242602,215213,
242883,215354,
243009,215388,
243322,215544,
243382,215558,
243648,215684,
243654,215677,
243870,215780,
243876,215768,
244159,215901,
244240,215943,
244590,216089,
244730,216136,
245072,216301,
245154,216302,
245416,216437,
245382,216394,
245523,216467,
245386,216412,
245475,216442,
245323,216353,
245367,216395,
245210,216295,
245255,216347,
245072,216224,
245129,216285,
245032,216225,
245187,216325,
245189,216295,
245427,216424,
245472,216430,
245728,216573,
245773,216545,
246004,216675,
246032,216670,
246249,216764,
246256,216762,
246482,216867,
246451,216842,
246653,216900,
246620,216896,
246794,216967,
246749,216949,
246914,217011,
246841,216983,
246994,217066,
246917,217005,
247080,217088,
246980,217023,
247136,217118,
247047,217056,
247173,217131,
247059,217070,
247222,217143,
247139,217084,
247286,217173,
247205,217114,
247337,217197,
247248,217131,
247387,217216,
247290,217151,
247450,217227,
247375,217178,
247494,217258,
247434,217190,
247568,217280,
247490,217229,
247619,217298,
247564,217253,
247712,217347,
247621,217295,
247793,217359,
247713,217333,
247861,217405,
247774,217345,
247924,217427,
247816,217345,
247801,217349,
247452,217167,
247197,217050,
246457,216705,
245635,216335,
244503,215867,
243753,215555,
243073,215274,
242813,215203,
242533,215110,
242594,215132,
242498,215122,
242677,215207,
242703,215219,
242937,215333,
242992,215372,
243315,215510,
243410,215573,
243720,215684,
243789,215712,
244071,215847,
244095,215871,
244346,215944,
244378,215979,
244627,216070,
244722,216130,
245016,216242,
245131,216306,
245435,216424,
245480,216450,
245693,216537,
245651,216496,
245759,216539,
245627,216481,
245668,216497,
245484,216411,
245484,216406,
245313,216335,
245362,216334,
245217,216289,
245316,216340,
245256,216312,
245384,216373,
245410,216401,
245631,216464,
245683,216505,
245889,216606,
245930,216620,
246138,216701,
246171,216719,
246371,216828,
246440,216835,
246607,216883,
246616,216890,
246773,216971,
246765,216967,
246891,217009,
246888,217000,
247013,217063,
246973,217037,
247085,217090,
247053,217089,
247180,217128,
247128,217095,
247206,217142,
247194,217130,
247277,217166,
247247,217159,
247343,217185,
247306,217164,
247402,217205,
247348,217195,
247449,217233,
247418,217219,
247506,217250,
247466,217257,
247574,217288,
247552,217278,
247639,217334,
247613,2
COM4 disconnected!
