
216309,210283,
216264,210211,
216318,210277,
216285,210203,
216397,210313,
216390,210267,
216521,210381,
216553,210331,
216715,210462,
216763,210431,
216910,210553,
216965,210527,
217102,210656,
217148,210620,
217289,210727,
217332,210708,
217466,210800,
217495,210778,
217618,210870,
217626,210846,
217733,210910,
217756,210914,
217842,210986,
217852,210959,
217979,211023,
217958,211017,
218072,211086,
218042,211056,
218145,211122,
218129,211091,
218250,211179,
218252,211146,
218390,211240,
218400,211223,
218551,211327,
218598,211306,
218749,211413,
218782,211394,
218945,211507,
218999,211496,
219130,211581,
219097,211533,
219074,211550,
218802,211385,
218533,211302,
218063,211038,
217661,210914,
217115,210638,
216721,210507,
216204,210264,
215947,210181,
215593,209997,
215461,209985,
215284,209875,
215286,209929,
215194,209859,
215265,209924,
215230,209878,
215313,209947,
215281,209900,
215343,209953,
215268,209896,
215311,209940,
215210,209880,
215226,209910,
215127,209828,
215189,209903,
215152,209857,
215277,209936,
215274,209909,
215426,209993,
215421,209959,
215502,210048,
215442,209978,
215509,210039,
215426,209971,
215443,210008,
215320,209937,
215348,209984,
215238,209893,
215279,209958,
215196,209885,
215262,209951,
215184,209886,
215282,209961,
215262,209923,
215373,210029,
215380,209983,
215529,210095,
215540,210065,
215699,210171,
215716,210144,
215867,210253,
215859,210229,
216010,210331,
216024,210291,
216167,210401,
216165,210364,
216302,210458,
216303,210422,
216461,210531,
216447,210499,
216612,210603,
216588,210559,
216727,210666,
216715,210613,
216842,210716,
216836,210664,
216947,210779,
216953,210728,
217069,210832,
217069,210783,
217186,210887,
217184,210856,
217326,210956,
217351,210936,
217503,211057,
217540,211018,
217706,211147,
217766,211114,
217960,211239,
218015,211250,
218193,211356,
218219,211341,
218341,211423,
218229,211329,
218136,211300,
217763,211111,
217474,211015,
216943,210761,
216529,210602,
215987,210342,
215606,210229,
215138,209997,
214881,209940,
214577,209785,
214484,209771,
214321,209687,
214350,209721,
214279,209687,
214385,209740,
214334,209704,
214439,209778,
214402,209724,
214450,209776,
214368,209710,
214424,209749,
214318,209696,
214361,209739,
214277,209687,
214383,209754,
214371,209742,
214517,209823,
214546,209814,
214681,209895,
214668,209863,
214777,209932,
214718,209905,
214772,209928,
214697,209889,
214754,209911,
214649,209863,
214693,209913,
214623,209860,
214700,209918,
214658,209882,
214748,209934,
214714,209924,
214854,210011,
214860,210002,
215024,210075,
215072,210089,
215227,210175,
215280,210200,
215478,210290,
215505,210305,
215683,210394,
215724,210419,
215884,210490,
215919,210490,
216073,210560,
216098,210578,
216230,210660,
216251,210673,
216376,210733,
216395,210732,
216512,210778,
216530,210790,
216654,210856,
216664,210847,
216788,210927,
216821,210944,
216937,210990,
216966,210994,
217089,211056,
217108,211074,
217221,211138,
217264,211128,
217383,211216,
217411,211200,
217544,211287,
217610,211318,
217777,211378,
217833,211424,
217990,211496,
218071,211541,
218237,211639,
218320,211632,
218452,211719,
218459,211701,
218463,211711,
218253,211603,
217990,211499,
217579,211313,
217212,211148,
216730,210931,
216314,210766,
215834,210581,
215536,210458,
215233,210313,
215066,210262,
214893,210202,
214881,210200,
214842,210177,
214926,210194,
214921,210225,
215025,210253,
215025,210267,
215104,210293,
215105,210293,
215123,210310,
215099,210287,
215130,210314,
215113,210300,
215154,210325,
215165,210342,
215281,210387,
215340,210418,
215488,210480,
215531,210515,
215664,210569,
215646,210562,
215727,210586,
215703,210588,
215733,210581,
215673,210577,
215703,210589,
215655,210588,
215690,210576,
215682,210586,
215733,210614,
215762,210631,
215857,210688,
215905,210710,
216035,210757,
216098,210791,
216246,210862,
216354,210918,
216486,210962,
216592,211016,
216758,211086,
216825,211132,
216962,211181,
217045,211228,
217194,211294,
217264,211339,
217362,211386,
217419,211410,
217530,211452,
217593,211479,
217689,211514,
217737,211551,
217831,211592,
217903,211642,
217992,211659,
218048,211685,
218145,211738,
218197,211788,
218320,211833,
218377,211854,
218478,211902,
218537,211951,
218657,211973,
218724,212031,
218810,212055,
218875,212102,
218996,212151,
219072,212178,
219173,212225,
219272,212300,
219392,212323,
219501,212379,
219628,212421,
219708,212495,
219851,212531,
219928,212580,
220012,212604,
220019,212615,
219942,212541,
219715,212465,
219396,212319,
219030,212158,
218630,211969,
218188,211833,
217778,211627,
217439,211490,
217142,211345,
216910,211297,
216756,211220,
216665,211216,
216654,211191,
216639,211206,
216685,211175,
216722,211252,
216770,211240,
216804,211263,
216820,211234,
216848,211276,
216826,211254,
216825,211278,
216820,211241,
216816,211266,
216850,211266,
216901,211312,
216998,211310,
217088,211386,
217165,211411,
217240,211468,
217283,211453,
217335,211498,
217328,211469,
217338,211488,
217327,211447,
217322,211480,
217301,211472,
217302,211495,
217279,211455,
217322,211487,
217327,211468,
217398,211545,
217475,211534,
217562,211605,
217669,211626,
217780,211723,
217867,211713,
217997,211810,
218109,211826,
218233,211940,
218321,211930,
218473,212030,
218550,212029,
218658,212113,
218724,212104,
218842,212207,
218899,212182,
219006,212270,
219055,212272,
219148,212356,
219208,212327,
219283,212410,
219319,212385,
219442,212477,
219465,212445,
219541,212544,
219605,212505,
219691,212597,
219736,212581,
219860,212682,
219899,212656,
220002,212741,
220050,212727,
220138,212806,
220197,212789,
220276,212864,
220342,212862,
220467,212946,
220499,212938,
220614,213025,
220682,213009,
220802,213113,
220887,213107,
220996,213210,
221072,213190,
221203,213287,
221252,213265,
221327,213327,
221257,213252,
221145,213234,
220883,213065,
220603,212989,
220195,212784,
219857,212673,
219406,212439,
219069,212361,
218735,212172,
218521,212121,
218286,211969,
218220,212004,
218102,211920,
218156,211999,
218135,211938,
218223,212014,
218205,211957,
218298,212047,
218282,212013,
218332,212062,
218296,211992,
218342,212069,
218259,211993,
218301,212042,
218256,211998,
218332,212071,
218314,212031,
218458,212123,
218481,212082,
218592,212195,
218584,212145,
218671,212208,
218657,212162,
218706,212228,
218646,212154,
218674,212225,
218621,212146,
218654,212197,
218586,212139,
218635,212202,
218603,212142,
218684,212224,
218677,212167,
218793,212278,
218830,212250,
218955,212332,
218988,212308,
219141,212436,
219194,212422,
219378,212523,
219424,212522,
219568,212619,
219607,212591,
219751,212695,
219790,212683,
219934,212785,
219963,212748,
220082,212832,
220083,212810,
220213,212895,
220236,212863,
220341,212942,
220322,212923,
220471,213023,
220455,212975,
220605,213058,
220564,213045,
220684,213112,
220715,213078,
220840,213188,
220860,213149,
220982,213260,
220984,213214,
221147,213320,
221138,213282,
221281,213389,
221288,213363,
221407,213449,
221417,213413,
221551,213519,
221579,213484,
221720,213583,
221720,213561,
221875,213661,
221886,213637,
222055,213723,
222076,213703,
222196,213806,
222239,213785,
222374,213881,
222373,213832,
222477,213907,
222365,213826,
222273,213815,
221976,213637,
221708,213568,
221288,213326,
220955,213234,
220521,213001,
220225,212903,
219837,212726,
219657,212668,
219409,212552,
219371,212559,
219235,212476,
219254,212530,
219232,212471,
219299,212554,
219274,212498,
219361,212592,
219333,212519,
219408,212591,
219331,212520,
219356,212571,
219287,212493,
219311,212543,
219226,212448,
219302,212543,
219254,212490,
219399,212580,
219367,212513,
219463,212620,
219446,212553,
219544,212642,
219500,212583,
219564,212648,
219466,212569,
219539,212640,
219418,212541,
219469,212621,
219401,212537,
219486,212615,
219404,212543,
219496,212632,
219484,212583,
219601,212671,
219586,212629,
219708,212735,
219737,212681,
219862,212786,
219901,212769,
220057,212858,
220074,212832,
220224,212944,
220263,212921,
220390,213018,
220414,212971,
220545,213074,
220540,213047,
220689,213135,
220686,213093,
220807,213192,
220796,213141,
220896,213240,
220885,213195,
220998,213281,
220995,213237,
221107,213316,
221111,213298,
221227,213369,
221209,213355,
221351,213420,
221355,213397,
221486,213485,
221485,213451,
221597,213552,
221611,213534,
221754,213612,
221774,213598,
221898,213679,
221918,213654,
222044,213736,
222051,213725,
222193,213788,
222185,213778,
222305,213853,
222301,213847,
222438,213907,
222445,213886,
222569,213974,
222562,213966,
222725,214041,
222731,214031,
222888,214108,
222882,214103,
223033,214158,
223012,214149,
223107,214192,
222993,214124,
222909,214098,
222603,213925,
222325,213822,
221920,213613,
221601,213492,
221147,213293,
220838,213160,
220472,212985,
220262,212929,
220019,212808,
219952,212790,
219825,212738,
219849,212764,
219788,212731,
219883,212766,
219849,212746,
219931,212787,
219893,212758,
219948,212793,
219859,212734,
219901,212764,
219822,212719,
219815,212714,
219747,212675,
219774,212702,
219726,212665,
219800,212728,
219785,212714,
219895,212751,
219888,212744,
219949,212776,
219935,212759,
219998,212805,
219941,212757,
219978,212764,
219920,212749,
219929,212761,
219883,212728,
219900,212759,
219879,212716,
219920,212754,
219924,212744,
219996,212800,
220017,212785,
220116,212846,
220154,212856,
220256,212898,
220319,212921,
220435,212995,
220479,212996,
220602,213068,
220639,213058,
220750,213117,
220817,213152,
220912,213205,
220950,213198,
221027,213256,
221071,213256,
221160,213303,
221178,213311,
221269,213351,
221297,213362,
221373,213389,
221375,213399,
221487,213452,
221498,213444,
221603,213473,
221641,213494,
221720,213533,
221771,213547,
221851,213610,
221888,213615,
221990,213654,
222027,213672,
222151,213726,
222182,213745,
222271,213790,
222325,213812,
222443,213850,
222486,213883,
222587,213922,
222634,213946,
222724,213960,
222771,214001,
222885,214043,
222897,214067,
223001,214087,
223041,214125,
223128,214163,
223153,214166,
223255,214191,
223282,214217,
223360,214244,
223371,214274,
223475,214308,
223508,214333,
223600,214362,
223646,214390,
223759,214421,
223786,214452,
223867,214459,
223846,214453,
223778,214415,
223548,214292,
223258,214156,
222880,213992,
222484,213807,
222066,213632,
221681,213458,
221301,213310,
220996,213173,
220747,213053,
220580,212989,
220428,212935,
220393,212906,
220347,212899,
220354,212895,
220345,212885,
220380,212909,
220398,212919,
220419,212912,
220384,212906,
220363,212899,
220313,212879,
220282,212836,
220198,212826,
220170,212789,
220119,212787,
220112,212761,
220119,212792,
220171,212792,
220205,212813,
220212,212815,
220259,212859,
220278,212828,
220297,212840,
220270,212828,
220268,212844,
220247,212818,
220224,212825,
220212,212793,
220216,212828,
220200,212762,
220234,212821,
220250,212796,
220281,212846,
220321,212832,
220388,212896,
220434,212894,
220506,212956,
220576,212956,
220644,213019,
220738,213031,
220811,213088,
220903,213092,
220963,213162,
221034,213159,
221108,213211,
221154,213213,
221240,213262,
221319,213249,
221375,213320,
221421,213316,
221493,213381,
221529,213361,
221601,213418,
221652,213416,
221705,213487,
221741,213454,
221805,213514,
221853,213500,
221912,213561,
221957,213550,
222014,213605,
222087,213603,
222149,213666,
222190,213666,
222305,213734,
222337,213718,
222413,213798,
222476,213779,
222578,213843,
222623,213834,
222703,213922,
222775,213902,
222857,213998,
222906,213968,
223032,214047,
223048,214009,
223132,214112,
223197,214071,
223269,214158,
223318,214126,
223405,214226,
223451,214183,
223546,214264,
223552,214235,
223621,214320,
223667,214288,
223738,214350,
223755,214339,
223867,214412,
223881,214373,
224014,214468,
224047,214437,
224153,214531,
224178,214494,
224229,214569,
224159,214487,
224012,214443,
223686,214244,
223356,214129,
222882,213893,
222484,213756,
222025,213514,
221663,213391,
221249,213172,
220975,213098,
220685,212950,
220553,212913,
220388,212798,
220378,212830,
220308,212789,
220370,212836,
220337,212777,
220430,212853,
220387,212800,
220427,212866,
220362,212786,
220382,212845,
220263,212755,
220271,212787,
220143,212688,
220168,212737,
220051,212636,
220120,212715,
220070,212628,
220153,212741,
220151,212660,
220226,212754,
220179,212680,
220254,212768,
220205,212694,
220258,212760,
220182,212674,
220211,212754,
220138,212670,
220165,212721,
220099,212639,
220150,212703,
220099,212640,
220175,212725,
220144,212672,
220260,212769,
220262,212719,
220374,212823,
220413,212785,
220554,212879,
220571,212850,
220710,212958,
220724,212930,
220877,213035,
220883,213003,
221025,213092,
221053,213065,
221182,213155,
221182,213124,
221319,213220,
221305,213168,
221449,213278,
221438,213235,
221537,213332,
221545,213285,
221666,213382,
221661,213351,
221778,213418,
221774,213383,
221910,213472,
221891,213447,
222020,213524,
222024,213483,
222148,213596,
222143,213546,
222284,213653,
222275,213598,
222410,213714,
222418,213675,
222542,213783,
222550,213730,
222687,213822,
222714,213801,
222842,213885,
222857,213850,
222981,213965,
222983,213917,
223130,214015,
223129,213972,
223273,214086,
223283,214035,
223448,214155,
223426,214102,
223545,214212,
223542,214164,
223664,214242,
223651,214210,
223749,214299,
223767,214244,
223887,214352,
223882,214290,
223993,214391,
223997,214353,
224115,214440,
224125,214428,
224273,214508,
224260,214464,
224361,214548,
224259,214443,
224170,214440,
223834,214239,
223503,214128,
222990,213870,
222587,213729,
222069,213435,
221704,213329,
221239,213091,
220928,213006,
220582,212809,
220443,212800,
220221,212661,
220211,212704,
220089,212615,
220141,212670,
220085,212609,
220185,212692,
220135,212628,
220233,212721,
220164,212645,
220230,212691,
220125,212602,
220156,212668,
220018,212562,
220050,212621,
219931,212523,
219963,212576,
219915,212494,
219994,212579,
219961,212538,
220038,212615,
219994,212547,
220079,212621,
220006,212551,
220066,212628,
219982,212546,
219985,212582,
219911,212512,
219953,212559,
219854,212494,
219902,212536,
219839,212460,
219908,212544,
219843,212475,
219959,212570,
219916,212515,
220066,212608,
220061,212576,
220196,212671,
220205,212652,
220360,212747,
220373,212721,
220533,212829,
220559,212786,
220701,212901,
220712,212867,
220860,212962,
220883,212921,
220991,213029,
220987,212990,
221116,213080,
221080,213048,
221206,213103,
221184,213078,
221279,213144,
221261,213103,
221388,213190,
221343,213157,
221470,213235,
221449,213211,
221590,213274,
221566,213260,
221684,213307,
221667,213285,
221809,213363,
221801,213344,
221941,213434,
221938,213420,
222094,213482,
222101,213486,
222224,213568,
222243,213552,
222391,213609,
222393,213628,
222540,213694,
222551,213688,
222700,213753,
222701,213759,
222845,213833,
222867,213837,
222993,213890,
223002,213874,
223129,213947,
223125,213939,
223240,213998,
223223,213991,
223371,214052,
223362,214047,
223493,214113,
223527,214104,
223627,214175,
223662,214166,
223798,214230,
223828,214234,
223919,214297,
223861,214264,
223806,214219,
223492,214056,
223161,213933,
222659,213693,
222226,213511,
221703,213267,
221263,213076,
220800,212853,
220463,212729,
220103,212574,
219926,212506,
219712,212399,
219667,212399,
219564,212352,
219627,212380,
219588,212352,
219672,212397,
219669,212375,
219729,212418,
219727,212398,
219767,212460,
219728,212400,
219732,212406,
219651,212353,
219651,212371,
219567,212319,
219583,212337,
219543,212306,
219599,212344,
219583,212325,
219650,212361,
219671,212354,
219705,212380,
219704,212378,
219745,212393,
219686,212368,
219716,212380,
219667,212337,
219676,212360,
219611,212327,
219635,212332,
219642,212334,
219694,212369,
219679,212363,
219758,212407,
219792,212417,
219897,212463,
219940,212489,
220077,212544,
220155,212571,
220293,212641,
220357,212671,
220503,212719,
220565,212733,
220687,212803,
220745,212849,
220877,212869,
220912,212903,
221013,212949,
221060,212983,
221171,212999,
221210,213036,
221285,213081,
221324,213089,
221426,213132,
221443,213151,
221538,213178,
221567,213192,
221646,213251,
221651,213246,
221744,213288,
221772,213314,
221884,213335,
221937,213363,
222029,213415,
222069,213418,
222182,213454,
222242,213501,
222334,213536,
222380,213563,
222493,213606,
222559,213623,
222661,213688,
222720,213710,
222817,213741,
222880,213775,
223007,213821,
223059,213856,
223187,213896,
223256,213952,
223380,213992,
223471,214037,
223551,214042,
223634,214089,
223714,214118,
223773,214162,
223867,214200,
223936,214240,
224021,214270,
224124,214300,
224201,214342,
224279,214386,
224381,214406,
224422,214457,
224391,214411,
224268,214358,
223932,214175,
223500,214003,
222997,213765,
222485,213554,
221988,213315,
221523,213138,
221118,212920,
220754,212807,
220471,212637,
220234,212580,
220089,212495,
220005,212500,
219958,212452,
219979,212463,
220007,212471,
220047,212515,
220104,212502,
220159,212547,
220209,212552,
220219,212573,
220226,212546,
220215,212570,
220196,212520,
220168,212522,
220159,212489,
220154,212535,
220173,212517,
220198,212559,
220234,212551,
220291,212589,
220306,212582,
220339,212621,
220335,212577,
220361,212620,
220339,212584,
220328,212620,
220302,212573,
220326,212602,
220290,212561,
220309,212613,
220268,212566,
220337,212619,
220328,212586,
220398,212647,
220428,212642,
220526,212717,
220589,212715,
220705,212803,
220779,212780,
220913,212879,
220973,212857,
221097,212966,
221174,212966,
221285,213054,
221365,213032,
221451,213120,
221513,213089,
221605,213196,
221654,213155,
221741,213242,
221784,213219,
221872,213299,
221895,213250,
221979,213345,
221991,213303,
222093,213398,
222116,213343,
222186,213439,
222233,213415,
222331,213505,
222371,213466,
222476,213561,
222497,213522,
222618,213625,
222640,213590,
222766,213689,
222797,213660,
222939,213763,
222957,213731,
223091,213825,
223139,213811,
223281,213905,
223300,213870,
223443,213968,
223456,213947,
223591,214024,
223609,213998,
223739,214089,
223768,214066,
223883,214171,
223899,214140,
224011,214215,
224034,214167,
224143,214269,
224188,214229,
224316,214328,
224329,214307,
224474,214413,
224526,214377,
224669,214496,
224684,214450,
224769,214550,
224656,214429,
224494,214403,
224079,214156,
223655,214007,
223067,213705,
222619,213548,
222073,213286,
221693,213153,
221263,212919,
221013,212860,
220702,212684,
220589,212682,
220429,212574,
220450,212617,
220377,212560,
220461,212622,
220467,212592,
220595,212683,
220586,212647,
220697,212730,
220686,212676,
220777,212753,
220714,212690,
220770,212754,
220667,212690,
220714,212734,
220658,212668,
220745,212745,
220702,212689,
220809,212780,
220786,212712,
220867,212807,
220821,212756,
220906,212824,
220846,212742,
220885,212804,
220804,212731,
220855,212775,
220751,212713,
220809,212772,
220723,212680,
220782,212747,
220732,212683,
220822,212769,
220795,212732,
220913,212802,
220922,212777,
221062,212883,
221104,212854,
221261,212951,
221307,212943,
221465,213048,
221505,213035,
221676,213127,
221706,213122,
221872,213208,
221900,213180,
222044,213276,
222059,213242,
222195,213337,
222208,213308,
222325,213391,
222346,213368,
222464,213462,
222469,213415,
222579,213504,
222558,213468,
222699,213554,
222684,213502,
222820,213605,
222804,213542,
222927,213665,
222913,213616,
223057,213704,
223038,213657,
223185,213775,
223178,213731,
223312,213831,
223334,213793,
223491,213884,
223476,213854,
223659,213973,
223684,213932,
223825,214035,
223832,213987,
223972,214114,
223998,214059,
224155,214176,
224166,214139,
224276,214222,
224323,214201,
224452,214289,
224473,214272,
224596,214378,
224625,214327,
224752,214434,
224778,214398,
224935,214499,
224963,214475,
225092,214593,
225122,214543,
225253,214641,
225188,214567,
225093,214528,
224667,214332,
224243,214170,
223608,213843,
223129,213672,
222558,213405,
222181,213261,
221719,213030,
221465,212958,
221127,212775,
221015,212770,
220838,212656,
220836,212689,
220757,212623,
220856,212710,
220816,212688,
220975,212752,
220959,212737,
221081,212826,
221059,212784,
221145,212831,
221065,212786,
221149,212824,
221052,212776,
221087,212822,
221025,212760,
221091,212804,
221046,212760,
221144,212834,
221108,212808,
221196,212855,
221151,212814,
221218,212852,
221155,212821,
221181,212832,
221088,212786,
221119,212818,
221025,212749,
221065,212772,
220999,212730,
221060,212778,
221019,212735,
221085,212777,
221068,212752,
221183,212807,
221200,212801,
221319,212880,
221356,212887,
221506,212965,
221563,212964,
221735,213067,
221795,213060,
221936,213140,
221978,213126,
222130,213225,
222140,213209,
222261,213279,
222280,213273,
222380,213320,
222378,213307,
222491,213364,
222482,213343,
222568,213411,
222602,213397,
222662,213440,
222674,213427,
222774,213484,
222775,213460,
222872,213512,
222894,213501,
222970,213550,
222990,213548,
223068,213613,
223093,213601,
223223,213675,
223233,213662,
223348,213729,
223375,213721,
223484,213778,
223506,213784,
223629,213848,
223671,213844,
223766,213891,
223802,213894,
223888,213957,
223900,213948,
224022,213998,
224042,213997,
224145,214063,
224199,214057,
224301,214117,
224334,214133,
224474,214194,
224535,214203,
224652,214259,
224705,214276,
224819,214345,
224800,214316,
224778,214297,
224481,214166,
224107,213981,
223566,213758,
223065,213535,
222542,213287,
222090,213117,
221628,212913,
221328,212771,
220995,212648,
220794,212552,
220600,212482,
220540,212456,
220460,212415,
220494,212444,
220484,212459,
220577,212463,
220589,212492,
220680,212521,
220691,212535,
220766,212564,
220762,212558,
220784,212540,
220710,212536,
220737,212531,
220695,212541,
220729,212520,
220711,212520,
220745,212533,
220750,212529,
220800,212522,
220731,212526,
220752,212537,
220705,212508,
220682,212489,
220612,212472,
220610,212434,
220535,212408,
220506,212407,
220474,212389,
220479,212376,
220472,212377,
220508,212390,
220522,212406,
220602,212428,
220664,212470,
220724,212493,
220819,212535,
220884,212571,
220974,212594,
221066,212619,
221153,212691,
221253,212706,
221358,212744,
221424,212777,
221492,212821,
221543,212847,
221604,212864,
221649,212861,
221705,212923,
221745,212898,
221803,212945,
221829,212942,
221871,212984,
221910,212984,
221939,213008,
221979,213005,
222018,213056,
222059,213037,
222098,213076,
222173,213084,
222216,213120,
222266,213128,
222314,213170,
222387,213180,
222449,213228,
222485,213222,
222545,213277,
222605,213283,
222662,213324,
222709,213312,
222797,213367,
222838,213388,
222917,213432,
222985,213423,
223052,213499,
223131,213490,
223214,213567,
223269,213547,
223348,213638,
223429,213621,
223498,213683,
223569,213668,
223612,213720,
223548,213662,
223397,213612,
223030,213410,
222637,213273,
222128,213009,
221665,212851,
221167,212584,
220752,212439,
220309,212211,
220019,212141,
219728,211976,
219571,211949,
219429,211852,
219403,211884,
219360,211835,
219407,211899,
219454,211868,
219522,211967,
219577,211935,
219655,212018,
219697,211962,
219763,212044,
219756,211993,
219780,212057,
219767,211997,
219799,212046,
219811,212013,
219915,212091,
219910,212044,
219956,212123,
219960,212069,
219988,212110,
219952,212043,
219952,212110,
219875,212020,
219894,212059,
219801,211974,
219808,212014,
219740,211950,
219777,211997,
219714,211918,
219773,211998,
219757,211961,
219853,212031,
219894,212016,
219999,212101,
220032,212087,
220197,212207,
220251,212166,
220427,212291,
220481,212277,
220619,212365,
220692,212353,
220843,212450,
220886,212435,
221009,212545,
221063,212509,
221214,212618,
221216,212572,
221355,212671,
221369,212621,
221468,212729,
221491,212679,
221596,212773,
221587,212736,
221703,212829,
221692,212784,
221807,212880,
221823,212847,
221928,212931,
221929,212885,
222039,212981,
222048,212935,
222169,213022,
222182,212993,
222319,213083,
222328,213058,
222450,213152,
222474,213127,
222592,213227,
222617,213183,
222742,213282,
222748,213265,
222902,213357,
222931,213330,
223098,213431,
223135,213420,
223318,213529,
223372,213518,
223554,213622,
223558,213595,
223642,213657,
223497,213558,
223323,213507,
222831,213239,
222469,213111,
221907,212824,
221529,212700,
221019,212434,
220715,212361,
220331,212146,
220146,212122,
219888,211968,
219863,212010,
219759,211922,
219839,212008,
219816,211961,
219983,212072,
220000,212044,
220168,212147,
220186,212138,
220347,212223,
220342,212191,
220464,212255,
220452,212223,
220566,212298,
220529,212260,
220629,212333,
220637,212285,
220740,212385,
220729,212328,
220798,212400,
220739,212323,
220793,212403,
220707,212306,
220719,212358,
220631,212269,
220626,212305,
220519,212230,
220558,212287,
220460,212203,
220520,212265,
220460,212193,
220555,212270,
220523,212228,
220670,212334,
220684,212307,
220831,212409,
220897,212391,
221051,212504,
221109,212474,
221281,212588,
221302,212572,
221479,212683,
221503,212647,
221665,212758,
221701,212727,
221843,212842,
221872,212801,
222000,212901,
222006,212878,
222143,212967,
222131,212917,
222240,213010,
222238,212956,
222347,213056,
222347,212996,
222436,213089,
222427,213045,
222527,213124,
222512,213075,
222608,213172,
222593,213117,
222678,213180,
222653,213147,
222786,213243,
222768,213185,
222919,213307,
222906,213245,
223074,213361,
223089,213344,
223263,213457,
223268,213445,
223455,213520,
223460,213489,
223597,213586,
223526,213528,
223478,213528,
223142,213328,
222811,213215,
222282,212960,
221897,212801,
221360,212558,
221023,212432,
220586,212219,
220376,212149,
220064,211999,
219967,211987,
219798,211896,
219843,211935,
219771,211899,
219918,211956,
219910,211963,
220073,212044,
220096,212028,
220240,212107,
220244,212099,
220360,212151,
220325,212118,
220439,212169,
220388,212136,
220506,212207,
220476,212179,
220604,212263,
220601,212216,
220676,212272,
220619,212227,
220667,212243,
220569,212199,
220576,212206,
220441,212121,
220449,212145,
220327,212080,
220310,212090,
220203,212021,
220247,212062,
220173,212014,
220235,212072,
220202,212032,
220303,212089,
220310,212082,
220437,212138,
220452,212146,
220591,212218,
220660,212234,
220804,212292,
220859,212308,
220989,212370,
221021,212389,
221183,212452,
221194,212454,
221319,212530,
221359,212505,
221456,212566,
221444,212548,
221567,212615,
221546,212604,
221644,212650,
221646,212649,
221720,212683,
221704,212670,
221787,212707,
221755,212683,
221808,212747,
221827,212719,
221890,212767,
221881,212757,
221982,212797,
222019,212807,
222108,212861,
222168,212897,
222285,212945,
222346,212954,
222429,213008,
222455,213000,
222462,213005,
222289,212912,
222058,212807,
221652,212628,
221271,212451,
220802,212238,
220387,212072,
219932,211855,
219600,211725,
219284,211588,
219056,211498,
218851,211402,
218812,211386,
218743,211354,
218783,211385,
218809,211384,
218910,211428,
218965,211455,
219078,211517,
219110,211523,
219178,211536,
219193,211551,
219240,211570,
219243,211573,
219303,211579,
219305,211588,
219393,211620,
219412,211639,
219471,211658,
219457,211647,
219466,211648,
219410,211620,
219391,211604,
219315,211573,
219270,211548,
219177,211500,
219141,211479,
219079,211456,
219041,211438,
219008,211430,
219006,211424,
219015,211426,
219062,211439,
219106,211481,
219184,211504,
219258,211553,
219359,211582,
219427,211622,
219527,211660,
219639,211708,
219738,211734,
219835,211781,
219939,211815,
220020,211868,
220097,211880,
220159,211913,
220244,211943,
220298,212002,
220358,211994,
220402,212026,
220451,212034,
220497,212061,
220498,212075,
220541,212103,
220584,212071,
220605,212129,
220638,212122,
220711,212166,
220758,212153,
220789,212221,
220892,212227,
220933,212270,
221036,212302,
221114,212341,
221192,212357,
221233,212395,
221199,212351,
221068,212288,
220786,212155,
220430,212026,
220010,211812,
219588,211629,
219136,211422,
218725,211259,
218352,211071,
218055,210958,
217806,210833,
217657,210793,
217549,210724,
217506,210742,
217517,210720,
217574,210757,
217605,210766,
217684,210816,
217724,210817,
217779,210874,
217792,210848,
217808,210899,
217804,210854,
217818,210909,
217812,210863,
217865,210914,
217899,210877,
217954,210954,
217974,210913,
218058,210981,
218054,210938,
218077,210987,
218018,210931,
217996,210946,
217928,210871,
217886,210914,
217815,210833,
217813,210874,
217760,210796,
217775,210860,
217770,210802,
217829,210877,
217821,210837,
217919,210916,
217973,210905,
218106,210995,
218173,211012,
218327,211111,
218409,211097,
218547,211210,
218643,211203,
218766,211304,
218859,211270,
218967,211381,
219027,211368,
219153,211460,
219175,211445,
219304,211524,
219321,211498,
219408,211574,
219442,211529,
219505,211617,
219508,211567,
219586,211677,
219592,211630,
219675,211701,
219702,211671,
219818,211753,
219819,211739,
219977,211842,
220006,211813,
220145,211903,
220189,211891,
220335,211995,
220320,211941,
220327,211992,
220151,211851,
219934,211794,
219511,211577,
219166,211456,
218674,211178,
218310,211066,
217868,210815,
217543,210739,
217193,210550,
217045,210527,
216814,210379,
216816,210430,
216721,210347,
216778,210432,
216773,210395,
216869,210472,
216879,210437,
216986,210530,
216960,210474,
217040,210539,
216986,210474,
217035,210537,
216979,210481,
217042,210530,
216994,210496,
217085,210577,
217079,210535,
217167,210606,
217144,210565,
217227,210625,
217182,210583,
217232,210641,
217131,210565,
217151,210631,
217072,210544,
217063,210581,
216964,210510,
216997,210560,
216920,210488,
216982,210550,
216926,210496,
217037,210601,
217026,210549,
217144,210646,
217145,210607,
217292,210717,
217305,210678,
217457,210804,
217502,210777,
217676,210895,
217697,210875,
217850,210980,
217874,210943,
218024,211062,
218051,211027,
218167,211116,
218180,211076,
218298,211180,
218300,211145,
218419,211228,
218398,211197,
218523,211289,
218512,211232,
218602,211322,
218593,211280,
218697,211387,
218726,211342,
218841,211445,
218862,211400,
219004,211541,
219035,211474,
219186,211610,
219229,211572,
219404,211694,
219398,211652,
219473,211722,
219323,211604,
219150,211558,
218730,211323,
218425,211215,
217912,210947,
217556,210833,
217097,210593,
216769,210494,
216403,210284,
216208,210242,
215967,210113,
215923,210132,
215802,210032,
215864,210109,
215816,210047,
215928,210150,
215894,210083,
215992,210184,
215952,210127,
216003,210183,
215934,210122,
215979,210173,
215905,210102,
215958,210178,
215900,210100,
215994,210197,
215993,210146,
216134,210241,
216114,210237,
216245,210318,
216226,210275,
216313,210336,
216238,210289,
216270,210345,
216193,210258,
216240,210302,
216148,210248,
216183,210298,
216108,210236,
216170,210314,
216142,210254,
216241,210344,
216243,210303,
216402,210412,
216420,210389,
216570,210500,
216618,210503,
216800,210600,
216840,210605,
217032,210687,
217052,210700,
217229,210798,
217278,210796,
217437,210877,
217451,210871,
217603,210957,
217607,210946,
217758,211036,
217739,211014,
217877,211096,
217875,211076,
218004,211151,
217991,211133,
218111,211198,
218082,211177,
218222,211250,
218187,211245,
218331,211303,
218330,211315,
218503,211384,
218522,211381,
218698,211484,
218756,211508,
218934,211600,
218999,211604,
219155,211680,
219169,211685,
219192,211695,
219008,211595,
218792,211493,
218375,211308,
218012,211156,
217519,210909,
217127,210758,
216664,210524,
216341,210389,
215966,210221,
215799,210168,
215611,210068,
215563,210064,
215482,210022,
215534,210059,
215536,210052,
215630,210100,
215639,210091,
215713,210147,
215710,210118,
215718,210144,
215663,210108,
215685,210135,
215645,210106,
215673,210150,
215690,210131,
215776,210181,
215799,210202,
215944,210273,
215973,210278,
216067,210320,
216089,210322,
216142,210351,
216102,210327,
216160,210364,
216119,210333,
216122,210341,
216093,210300,
216092,210332,
216057,210329,
216104,210355,
216114,210367,
216198,210399,
216247,210422,
216372,210493,
216428,210501,
216554,210571,
216624,210594,
216773,210671,
216841,210709,
216987,210758,
217060,210796,
217212,210865,
217279,210897,
217387,210943,
217444,210971,
217561,211026,
217592,211065,
217718,211091,
217744,211134,
217852,211162,
217880,211191,
217962,211219,
217999,211258,
218088,211271,
218104,211290,
218186,211321,
218227,211351,
218304,211379,
218336,211413,
218451,211449,
218486,211480,
218609,211520,
218687,211572,
218799,211599,
218912,211659,
219027,211698,
219126,211787,
219251,211821,
219315,211839,
219347,211855,
219250,211814,
219024,211689,
218659,211538,
218272,211356,
217828,211158,
217403,210920,
216976,210747,
216582,210581,
216271,210450,
215994,210317,
215826,210272,
215732,210214,
215694,210199,
215665,210187,
215665,210222,
215686,210207,
215735,210244,
215744,210219,
215722,210264,
215731,210231,
215722,210246,
215662,210198,
215635,210213,
215598,210189,
215598,210193,
215634,210204,
215702,210253,
215797,210292,
215887,210350,
215970,210349,
216034,210392,
216058,210397,
216104,210441,
216100,210415,
216085,210429,
216070,210405,
216049,210432,
216032,210384,
216021,210419,
216024,210392,
216083,210430,
216087,210420,
216160,210491,
216236,210477,
216327,210569,
216396,210568,
216535,210670,
216609,210663,
216748,210765,
216826,210766,
216963,210862,
217023,210870,
217203,210978,
217230,210936,
217365,211054,
217423,211032,
217541,211138,
217583,211095,
217695,211204,
217747,211167,
217855,211282,
217896,211257,
218007,211342,
218037,211327,
218156,211401,
218197,211413,
218317,211487,
218362,211483,
218463,211551,
218500,211557,
218591,211622,
218638,211621,
218762,211699,
218807,211681,
218944,211783,
219016,211773,
219139,211873,
219229,211869,
219384,211993,
219481,211997,
219648,212095,
219710,212093,
219834,212180,
219800,212126,
219764,212147,
219496,211973,
219225,211869,
218805,211645,
218428,211515,
217959,211244,
217591,211134,
217155,210903,
216881,210817,
216570,210666,
216467,210644,
216293,210529,
216289,210584,
216214,210515,
216273,210590,
216246,210536,
216316,210616,
216282,210546,
216340,210622,
216283,210568,
216304,210633,
216216,210536,
216232,210578,
216158,210514,
216218,210582,
216195,210546,
216333,210647,
216351,210607,
216495,210705,
216519,210697,
216640,210790,
216637,210760,
216735,210827,
216679,210767,
216767,210827,
216696,210759,
216746,210832,
216674,210747,
216739,210835,
216697,210760,
216776,210859,
216766,210808,
216903,210898,
216913,210875,
217078,210994,
217098,210962,
217270,211086,
217325,211068,
217519,211199,
217561,211180,
217740,211304,
217793,211277,
217992,211411,
218012,211381,
218193,211511,
218215,211471,
218366,211583,
218396,211548,
218534,211651,
218554,211624,
218683,211719,
218689,211684,
218825,211773,
218836,211742,
218974,211840,
218979,211824,
219126,211914,
219123,211882,
219246,211983,
219268,211943,
219392,212056,
219418,212015,
219561,212118,
219568,212083,
219715,212175,
219716,212155,
219889,212262,
219916,212220,
220074,212366,
220122,212332,
220308,212472,
220351,212441,
220542,212559,
220569,212549,
220703,212640,
220634,212549,
220626,212586,
220353,212406,
220138,212350,
219731,212113,
219410,212010,
218931,211743,
218598,211656,
218173,211428,
217909,211352,
217619,211187,
217506,211196,
217345,211073,
217335,211125,
217250,211054,
217325,211117,
217281,211082,
217343,211153,
217305,211089,
217353,211168,
217294,211084,
217318,211142,
217237,211066,
217250,211125,
217176,211058,
217228,211119,
217197,211067,
217330,211185,
217355,211155,
217513,211241,
217530,211228,
217676,211311,
217652,211261,
217755,211358,
217707,211311,
217788,211354,
217707,211317,
217761,211363,
217695,211300,
217764,211352,
217693,211330,
217820,211382,
217791,211362,
217918,211444,
217921,211416,
218061,211498,
218090,211488,
218264,211586,
218309,211583,
218465,211679,
218492,211675,
218661,211761,
218706,211764,
218862,211844,
218890,211835,
219034,211917,
219050,211920,
219197,211983,
219205,211969,
219338,212057,
219342,212039,
219479,212104,
219477,212102,
219608,212177,
219601,212154,
219743,212217,
219748,212203,
219877,212283,
219888,212268,
220013,212356,
220015,212327,
220116,212386,
220141,212384,
220241,212449,
220274,212452,
220403,212517,
220423,212499,
220532,212584,
220565,212591,
220711,212655,
220758,212668,
220900,212731,
220957,212749,
221090,212825,
221150,212825,
221272,212900,
221269,212902,
221328,212925,
221235,212847,
221089,212790,
220788,212625,
220464,212509,
220048,212298,
219674,212136,
219211,211915,
218837,211785,
218426,211584,
218205,211513,
217952,211396,
217856,211371,
217735,211331,
217734,211333,
217687,211312,
217723,211355,
217724,211333,
217736,211364,
217712,211348,
217725,211361,
217654,211314,
217661,211320,
217605,211315,
217609,211310,
217550,211291,
217615,211321,
217652,211354,
217758,211393,
217800,211419,
217910,211468,
217936,211469,
218018,211521,
218026,211531,
218064,211527,
218027,211525,
218041,211518,
217985,211492,
217994,211484,
217938,211481,
217963,211492,
217951,211477,
217999,211513,
218023,211517,
218110,211571,
218151,211583,
218255,211620,
218324,211669,
218447,211720,
218519,211747,
218645,211797,
218739,211848,
218831,211869,
218887,211931,
219008,211957,
219052,211993,
219147,212011,
219184,212052,
219267,212073,
219321,212108,
219398,212116,
219462,212167,
219500,212174,
219553,212215,
219613,212221,
219654,212261,
219741,212274,
219788,212317,
219853,212327,
219918,212370,
219984,212364,
220050,212435,
220109,212433,
220168,212487,
220245,212485,
220294,212529,
220369,212541,
220422,212600,
220506,212597,
220554,212669,
220633,212677,
220726,212729,
220809,212751,
220898,212816,
221015,212815,
221080,212890,
221185,212912,
221291,212982,
221354,212989,
221380,213032,
221339,212964,
221223,212948,
220992,212785,
220648,212673,
220222,212449,
219788,212267,
219283,212022,
218842,211879,
218390,211640,
218077,211524,
217762,211397,
217600,211365,
217447,211273,
217414,211285,
217367,211252,
217387,211301,
217360,211266,
217417,211325,
217379,211266,
217407,211328,
217341,211261,
217351,211310,
217247,211227,
217239,211260,
217186,211199,
217205,211254,
217229,211225,
217308,211330,
217377,211298,
217486,211391,
217519,211357,
217594,211435,
217611,211403,
217658,211474,
217647,211405,
217652,211470,
217608,211417,
217631,211471,
217600,211402,
217633,211472,
217634,211425,
217675,211484,
217676,211450,
217774,211540,
217801,211519,
217938,211613,
217954,211580,
218112,211699,
218170,211685,
218326,211797,
218367,211791,
218533,211900,
218579,211871,
218762,211980,
218795,211966,
218933,212075,
218965,212027,
219118,212136,
219121,212110,
219256,212218,
219275,212170,
219388,212265,
219411,212233,
219528,212327,
219548,212282,
219667,212402,
219687,212350,
219814,212443,
219819,212414,
219951,212524,
219977,212467,
220105,212576,
220126,212576,
220276,212660,
220307,212630,
220443,212743,
220461,212704,
220579,212802,
220610,212774,
220746,212865,
220766,212849,
220901,212945,
220930,212919,
221076,213020,
221097,212987,
221259,213101,
221278,213089,
221484,213204,
221510,213185,
221678,213295,
221687,213268,
221807,213352,
221740,213275,
221679,213263,
221392,213101,
221134,213018,
220670,212772,
220287,212631,
219761,212362,
219390,212256,
218885,211993,
218624,211908,
218299,211742,
218188,211749,
218010,211624,
218013,211682,
217950,211630,
218014,211718,
217993,211662,
218069,211733,
218066,211690,
218141,211772,
218102,211702,
218121,211757,
218064,211685,
218090,211754,
218023,211661,
218100,211750,
218071,211705,
218221,211806,
218241,211775,
218400,211877,
218422,211874,
218562,211977,
218521,211911,
218646,212003,
218591,211936,
218650,212015,
218573,211944,
218645,212012,
218600,211943,
218648,212021,
218608,211943,
218690,212054,
218649,211990,
218793,212097,
218793,212044,
218928,212157,
218966,212122,
219148,212230,
219185,212225,
219372,212349,
219413,212329,
219592,212453,
219640,212425,
219810,212540,
219833,212512,
220018,212635,
220043,212593,
220182,212706,
220221,212689,
220365,212788,
220364,212746,
220481,212848,
220490,212808,
220639,212914,
220622,212863,
220758,212951,
220750,212919,
220899,213009,
220892,212981,
221035,213079,
221040,213049,
221180,213137,
221182,213117,
221330,213208,
221340,213197,
221516,213274,
221501,213271,
221674,213351,
221667,213345,
221801,213427,
221809,213400,
221953,213491,
221956,213465,
222099,213549,
222101,213540,
222266,213618,
222272,213608,
222431,213693,
222460,213701,
222614,213781,
222646,213774,
222798,213857,
222809,213859,
222914,213886,
222793,213831,
222718,213809,
222379,213647,
222122,213525,
221644,213291,
221232,213132,
220752,212894,
220383,212753,
219919,212555,
219670,212440,
219340,212298,
219228,212279,
219072,212190,
219047,212204,
218973,212171,
219026,212217,
219009,212181,
219042,212213,
219021,212207,
219076,212235,
219017,212185,
219020,212207,
218918,212147,
218922,212177,
218866,212112,
218879,212171,
218875,212148,
218944,212197,
218991,212197,
219085,212245,
219087,212249,
219186,212297,
219171,212287,
219245,212311,
219220,212295,
219248,212312,
219202,212291,
219230,212313,
219171,212271,
219206,212293,
219170,212285,
219211,212310,
219227,212313,
219299,212343,
219330,212373,
219434,212428,
219502,212447,
219613,212495,
219683,212522,
219798,212585,
219877,212610,
220016,212663,
220072,212710,
220191,212759,
220259,212786,
220365,212815,
220435,212851,
220528,212892,
220579,212922,
220672,212961,
220692,212992,
220777,213021,
220829,213035,
220918,213060,
220961,213088,
221031,213107,
221080,213132,
221169,213165,
221210,213198,
221272,213230,
221318,213273,
221432,213284,
221471,213329,
221564,213351,
221611,213377,
221722,213404,
221771,213449,
221875,213474,
221959,213535,
222049,213563,
222129,213596,
222204,213627,
222287,213677,
222382,213696,
222445,213742,
222518,213763,
222604,213807,
222664,213829,
222737,213889,
222818,213887,
222904,213943,
222986,213945,
223076,214003,
223155,214045,
223246,214091,
223354,214123,
223429,214183,
223482,214167,
223455,214188,
223310,214102,
223059,213982,
222690,213803,
222276,213623,
221805,213401,
221332,213210,
220851,212982,
220431,212818,
220075,212642,
219795,212574,
219585,212449,
219452,212422,
219353,212364,
219332,212397,
219305,212356,
219321,212410,
219331,212381,
219350,212425,
219340,212392,
219340,212404,
219292,212354,
219258,212387,
219179,212293,
219150,212336,
219088,212262,
219085,212305,
219066,212256,
219143,212344,
219177,212302,
219242,212384,
219249,212357,
219338,212421,
219341,212383,
219401,212452,
219378,212392,
219394,212449,
219369,212385,
219383,212440,
219322,212383,
219373,212429,
219351,212393,
219403,212449,
219416,212405,
219502,212503,
219543,212472,
219646,212555,
219697,212552,
219839,212629,
219911,212635,
220050,212749,
220112,212724,
220260,212833,
220312,212811,
220460,212901,
220502,212885,
220646,212988,
220672,212959,
220800,213059,
220818,213031,
220956,213106,
220953,213094,
221083,213192,
221082,213129,
221193,213225,
221197,213196,
221302,213291,
221311,213230,
221430,213336,
221444,213297,
221561,213390,
221575,213344,
221708,213473,
221728,213416,
221891,213531,
221893,213502,
222022,213592,
222046,213563,
222192,213667,
222222,213641,
222350,213727,
222401,213700,
222542,213810,
222550,213779,
222703,213890,
222720,213864,
222874,213956,
222859,213927,
222983,214001,
223003,213978,
223132,214055,
223122,214033,
223265,214129,
223260,214092,
223422,214198,
223428,214158,
223577,214262,
223591,214242,
223771,214349,
223782,214326,
223929,214426,
223891,214352,
223922,214417,
223700,214268,
223469,214223,
223013,213962,
222658,213818,
222105,213559,
221668,213419,
221142,213137,
220763,213026,
220377,212807,
220146,212743,
219873,212593,
219806,212618,
219658,212530,
219699,212568,
219637,212503,
219735,212586,
219669,212546,
219743,212617,
219694,212542,
219737,212605,
219620,212514,
219647,212570,
219526,212469,
219521,212514,
219399,212420,
219457,212479,
219395,212412,
219492,212508,
219466,212454,
219609,212547,
219573,212490,
219696,212589,
219663,212521,
219736,212613,
219672,212537,
219752,212601,
219669,212513,
219728,212595,
219658,212506,
219703,212581,
219640,212515,
219727,212587,
219707,212538,
219804,212623,
219785,212577,
219922,212678,
219952,212643,
220095,212746,
220122,212724,
220289,212826,
220328,212805,
220509,212929,
220545,212892,
220687,213012,
220740,212978,
220889,213083,
220889,213059,
221048,213161,
221061,213110,
221202,213214,
221211,213175,
221367,213264,
221332,213253,
221506,213343,
221483,213304,
221621,213394,
221615,213379,
221778,213460,
221762,213436,
221909,213514,
221921,213512,
222068,213584,
222085,213581,
222224,213655,
222232,213658,
222389,213736,
222402,213717,
222546,213805,
222567,213795,
222734,213872,
222759,213876,
222922,213980,
222931,213950,
223109,214042,
223117,214023,
223274,214114,
223306,214101,
223437,214183,
223451,214172,
223574,214243,
223606,214236,
223737,214309,
223759,214290,
223870,214385,
223874,214362,
224015,214407,
224018,214440,
224175,214505,
224217,214492,
224364,214581,
224389,214579,
224529,214655,
224556,214653,
224629,214699,
224539,214625,
224391,214579,
224014,214382,
223640,214230,
223118,213991,
222670,213826,
222148,213575,
221757,213426,
221311,213193,
220991,213087,
220669,212953,
220521,212903,
220373,212818,
220321,212826,
220291,212796,
220326,212825,
220305,212807,
220374,212864,
220360,212836,
220434,212856,
220381,212822,
220400,212855,
220325,212811,
220296,212791,
220200,212757,
220158,212725,
220094,212711,
220143,212726,
220104,212714,
220176,212741,
220206,212772,
220295,212802,
220297,212804,
220382,212823,
220369,212834,
220404,212848,
220365,212829,
220404,212828,
220328,212811,
220353,212813,
220296,212798,
220338,212811,
220310,212801,
220370,212816,
220383,212828,
220458,212836,
220475,212867,
220570,212899,
220632,212934,
220751,212981,
220840,213009,
220952,213072,
221029,213104,
221149,213135,
221214,213162,
221330,213191,
221378,213246,
221480,213279,
221533,213326,
221641,213338,
221712,213378,
221774,213408,
221834,213438,
221903,213441,
221961,213490,
222026,213499,
222103,213543,
222159,213555,
222211,213593,
222298,213595,
222355,213660,
222414,213680,
222488,213719,
222554,213727,
222646,213779,
222719,213787,
222795,213855,
222882,213859,
222948,213925,
223041,213930,
223111,214019,
223214,214015,
223295,214067,
223394,214080,
223466,214136,
223562,214167,
223642,214220,
223731,214231,
223797,214290,
223852,214284,
223937,214346,
223996,214346,
224076,214412,
224136,214412,
224211,214468,
224248,214447,
224340,214518,
224369,214499,
224469,214586,
224533,214577,
224626,214654,
224671,214638,
224787,214741,
224846,214718,
224943,214805,
224929,214745,
224911,214766,
224689,214618,
224370,214540,
223909,214265,
223437,214112,
222922,213849,
222474,213697,
221979,213436,
221587,213320,
221227,213098,
220956,213049,
220713,212885,
220608,212896,
220500,212821,
220489,212846,
220466,212804,
220524,212864,
220528,212834,
220589,212893,
220553,212835,
220621,212895,
220539,212813,
220552,212860,
220456,212779,
220447,212816,
220345,212743,
220389,212755,
220317,212716,
220394,212780,
220383,212737,
220491,212832,
220480,212765,
220566,212868,
220552,212799,
220631,212880,
220594,212822,
220667,212890,
220590,212810,
220648,212863,
220552,212774,
220606,212853,
220566,212791,
220623,212850,
220579,212786,
220663,212890,
220681,212840,
220793,212934,
220809,212899,
220965,212988,
221008,212974,
221151,213071,
221195,213058,
221349,213177,
221397,213141,
221564,213231,
221628,213213,
221752,213321,
221755,213303,
221917,213404,
221905,213354,
222041,213445,
222049,213416,
222177,213506,
222157,213467,
222285,213566,
222283,213522,
222425,213604,
222405,213572,
222541,213666,
222516,213625,
222655,213724,
222632,213675,
222755,213771,
222763,213722,
222896,213838,
222894,213779,
223068,213903,
223054,213865,
223207,213981,
223223,213935,
223380,214032,
223402,214010,
223548,214120,
223565,214105,
223728,214193,
223742,214167,
223905,214256,
223912,214236,
224078,214351,
224089,214305,
224212,214416,
224250,214368,
224383,214480,
224391,214419,
224533,214538,
224527,214486,
224679,214597,
224651,214555,
224810,214658,
224811,214613,
224966,214739,
224982,214693,
225149,214819,
225176,214767,
225314,214895,
225274,214811,
225251,214836,
224944,214644,
224601,214527,
224019,214216,
223569,214081,
223008,213783,
222575,213661,
222084,213406,
221782,213318,
221402,213114,
221219,213075,
220981,212923,
220947,212941,
220820,212860,
220891,212946,
220856,212865,
220949,212962,
220947,212914,
221064,213015,
221032,212963,
221131,213019,
221044,212963,
221112,213017,
220991,212941,
221030,212978,
220910,212879,
220948,212956,
220880,212891,
220997,212952,
220964,212923,
221063,212971,
221026,212951,
221127,213003,
221071,212960,
221148,213022,
221060,212948,
221127,212985,
221000,212929,
221044,212966,
220949,212885,
221016,212924,
220936,212881,
221010,212954,
220975,212889,
221067,212959,
221067,212937,
221203,213011,
221226,213003,
221372,213094,
221391,213083,
221570,213168,
221606,213172,
221751,213257,
221810,213247,
221990,213332,
222001,213327,
222170,213406,
222168,213403,
222316,213471,
222316,213481,
222444,213539,
222460,213525,
222575,213586,
222573,213568,
222689,213641,
222711,213626,
222791,213685,
222791,213682,
222916,213730,
222918,213727,
223004,213790,
223037,213769,
223128,213834,
223159,213813,
223274,213884,
223299,213885,
223410,213950,
223448,213937,
223569,214025,
223617,214023,
223726,214097,
223770,214074,
223892,214149,
223934,214169,
224029,214211,
224071,214231,
224176,214279,
224220,214279,
224329,214332,
224362,214351,
224499,214400,
224534,214421,
224654,214495,
224711,214501,
224855,214581,
224942,214607,
225081,214668,
225139,214704,
225254,214748,
225250,214725,
225169,214666,
224852,214537,
224450,214336,
223920,214124,
223444,213898,
222937,213692,
222549,213511,
222131,213363,
221847,213216,
221586,213123,
221453,213075,
221344,213014,
221330,213019,
221332,213014,
221429,213060,
221487,213087,
221610,213123,
221679,213170,
221796,213217,
221853,213240,
221945,213269,
221962,213285,
222038,213280,
222037,213311,
222091,213330,
222136,213342,
222218,213385,
222268,213418,
222329,213418,
222354,213452,
222387,213427,
222355,213438,
222321,213410,
222270,213400,
222231,213359,
222156,213337,
222101,213305,
222059,213300,
222024,213267,
222015,213275,
222021,213247,
222057,213294,
222122,213292,
222171,213361,
222267,213361,
222371,213432,
222474,213446,
222586,213517,
222694,213545,
222805,213614,
222915,213645,
223021,213726,
223105,213726,
223198,213795,
223311,213791,
223363,213843,
223442,213853,
223489,213894,
223553,213893,
223594,213952,
223627,213944,
223687,213985,
223709,213962,
223769,214027,
223782,214005,
223833,214055,
223874,214038,
223923,214110,
223971,214069,
224039,214145,
224056,214116,
224121,214181,
224154,214157,
224218,214246,
224241,214204,
224321,214280,
224355,214248,
224459,214330,
224478,214319,
224590,214374,
224651,214368,
224762,214476,
224849,214454,
224957,214566,
225041,214547,
225178,214662,
225262,214659,
225396,214725,
225385,214678,
225344,214681,
225076,214508,
224710,214387,
224192,214129,
223762,213961,
223229,213703,
222841,213570,
222420,213351,
222144,213276,
221853,213101,
221733,213093,
221558,212989,
221568,213030,
221532,212959,
221631,213053,
221664,213021,
221777,213128,
221827,213098,
222002,213224,
222016,213176,
222155,213272,
222144,213224,
222226,213302,
222206,213258,
222344,213344,
222323,213316,
222477,213431,
222495,213357,
222587,213451,
222547,213395,
222607,213443,
222489,213383,
222481,213396,
222367,213295,
222340,213337,
222215,213226,
222185,213256,
222073,213172,
222092,213216,
222007,213140,
222057,213206,
222024,213144,
222124,213245,
222133,213195,
222273,213290,
222297,213264,
222461,213375,
222494,213357,
222679,213469,
222725,213455,
222899,213558,
222925,213521,
223092,213635,
223115,213603,
223266,213692,
223255,213657,
223372,213760,
223356,213682,
223481,213798,
223444,213737,
223566,213813,
223517,213776,
223636,213883,
223607,213804,
223704,213893,
223664,213838,
223775,213937,
223750,213874,
223853,213957,
223828,213900,
223916,213986,
223908,213942,
224019,214021,
223995,213967,
224123,214071,
224123,214033,
224248,214122,
224285,214102,
224463,214208,
224480,214169,
224658,214296,
224707,214282,
224883,214406,
224920,214349,
225042,214455,
224940,214347,
224828,214340,
224411,214082,
224036,213963,
223471,213686,
223072,213551,
222534,213261,
222195,213161,
221781,212931,
221566,212904,
221288,212724,
221231,212747,
221083,212626,
221131,212706,
221093,212654,
221208,212752,
221208,212713,
221372,212811,
221368,212759,
221510,212861,
221511,212822,
221589,212906,
221545,212825,
221659,212929,
221601,212847,
221718,212942,
221713,212903,
221824,212990,
221800,212937,
221909,213020,
221837,212934,
221889,213001,
221772,212899,
221798,212940,
221645,212847,
221640,212875,
221470,212774,
221483,212811,
221368,212728,
221419,212775,
221312,212695,
221419,212777,
221367,212719,
221465,212803,
221484,212765,
221624,212865,
221641,212837,
221805,212929,
221851,212925,
222045,213031,
222081,213032,
222252,213119,
222285,213138,
222471,213202,
222478,213190,
222628,213280,
222626,213266,
222761,213315,
222763,213304,
222895,213386,
222905,213387,
223025,213427,
223010,213404,
223108,213479,
223110,213455,
223240,213524,
223215,213501,
COM4 disconnected!
