COM4 connected!
238353,217934,
238367,217918,
238511,218010,
238577,218020,
238690,218100,
238701,218078,
238793,218143,
238740,218088,
238754,218136,
238677,218035,
238645,218048,
238516,217960,
238489,217970,
238392,217896,
238433,217950,
238400,217897,
238484,217960,
238485,217951,
238663,218061,
238679,218055,
238840,218169,
238918,218163,
239066,218272,
239137,218263,
239287,218379,
239340,218370,
239442,218486,
239493,218457,
239629,218562,
239649,218535,
239753,218620,
239758,218588,
239870,218674,
239849,218648,
239921,218723,
239905,218675,
239984,218742,
239950,218704,
240038,218747,
239974,218711,
240066,218764,
240032,218738,
240124,218795,
240110,218782,
240182,218833,
240180,218822,
240264,218883,
240230,218850,
240319,218915,
240321,218894,
240410,218948,
240391,218924,
240491,218987,
240476,218967,
240610,219052,
240589,219037,
240718,219093,
240710,219113,
240822,219172,
240818,219175,
240910,219223,
240877,219206,
240904,219215,
240726,219114,
240543,218998,
240048,218702,
239524,218424,
238774,218017,
237981,217611,
237146,217225,
236657,216992,
236289,216814,
236227,216806,
236213,216814,
236450,216935,
236599,217007,
236913,217166,
237161,217278,
237451,217416,
237636,217513,
237870,217620,
237956,217660,
238096,217712,
238087,217709,
238140,217733,
238140,217731,
238204,217763,
238231,217775,
238342,217847,
238422,217877,
238545,217950,
238588,217964,
238656,217998,
238651,217973,
238665,217981,
238595,217941,
238571,217938,
238495,217884,
238464,217865,
238381,217837,
238407,217841,
238370,217839,
238427,217861,
238462,217885,
238596,217943,
238665,217978,
238796,218045,
238889,218088,
239042,218161,
239144,218237,
239297,218302,
239386,218348,
239515,218417,
239590,218461,
239713,218520,
239761,218551,
239848,218589,
239885,218610,
239964,218641,
239979,218672,
240025,218672,
240050,218699,
240111,218719,
240117,218741,
240182,218761,
240220,218787,
240268,218801,
240279,218828,
240319,218845,
240340,218864,
240376,218844,
240401,218896,
240446,218913,
240470,218920,
240528,218947,
240556,218976,
240627,219006,
240654,219021,
240725,219054,
240767,219080,
240836,219099,
240885,219146,
240948,219172,
240996,219179,
241034,219200,
241048,219207,
240997,219171,
240836,219085,
240553,218919,
240003,218613,
239376,218277,
238594,217870,
237732,217433,
237060,217128,
236586,216901,
236359,216807,
236286,216785,
236355,216842,
236518,216895,
236740,217005,
236942,217101,
237204,217221,
237405,217323,
237602,217435,
237734,217478,
237850,217550,
237904,217548,
237921,217557,
237931,217559,
237941,217576,
237952,217577,
238031,217633,
238118,217659,
238249,217733,
238356,217769,
238427,217822,
238485,217835,
238507,217861,
238491,217837,
238462,217826,
238377,217779,
238323,217752,
238254,217706,
238245,217732,
238224,217694,
238242,217731,
238271,217720,
238364,217794,
238430,217788,
238541,217892,
238654,217908,
238810,218027,
238916,218049,
239066,218160,
239160,218172,
239300,218275,
239406,218295,
239510,218376,
239574,218380,
239648,218450,
239684,218429,
239746,218487,
239766,218473,
239835,218534,
239851,218504,
239871,218554,
239865,218526,
239916,218576,
239928,218554,
239973,218602,
239968,218567,
240028,218622,
240028,218600,
240084,218645,
240064,218621,
240116,218666,
240120,218626,
240157,218688,
240150,218653,
240250,218717,
240234,218697,
240355,218774,
240378,218764,
240476,218849,
240501,218830,
240629,218927,
240626,218900,
240727,218984,
240727,218956,
240733,218975,
240578,218860,
240372,218746,
239828,218427,
239220,218146,
238342,217638,
237449,217247,
236717,216870,
236251,216693,
235922,216522,
235854,216545,
235903,216534,
236082,216662,
236253,216728,
236521,216863,
236734,216946,
237012,217102,
237172,217157,
237415,217270,
237494,217286,
237597,217367,
237568,217334,
237602,217370,
237550,217323,
237597,217353,
237590,217328,
237716,217422,
237794,217432,
237965,217541,
238037,217547,
238171,217638,
238208,217637,
238293,217695,
238253,217645,
238285,217692,
238167,217606,
238192,217648,
238078,217563,
238122,217603,
238068,217559,
238172,217633,
238170,217618,
238309,217695,
238343,217690,
238509,217787,
238578,217803,
238774,217920,
238865,217942,
239050,218070,
239127,218087,
239276,218184,
239369,218186,
239519,218289,
239554,218290,
239691,218381,
239707,218374,
239817,218435,
239813,218421,
239909,218497,
239892,218463,
239972,218522,
239983,218486,
240073,218545,
240065,218535,
240135,218604,
240112,218569,
240193,218623,
240173,218599,
240279,218673,
240260,218630,
240357,218719,
240337,218676,
240445,218741,
240419,218715,
240501,218783,
240493,218762,
240583,218840,
240592,218811,
240704,218900,
240710,218867,
240833,218974,
240836,218945,
240928,219016,
240906,218981,
240956,219019,
240824,218934,
240721,218894,
240338,218651,
239799,218362,
239053,217966,
238174,217534,
237233,217061,
236567,216800,
236069,216547,
235901,216507,
235811,216468,
235949,216555,
236069,216590,
236308,216727,
236495,216787,
236780,216939,
236963,217002,
237191,217117,
237269,217140,
237379,217204,
237350,217175,
237411,217187,
237301,217148,
237335,217173,
237287,217122,
237388,217182,
237401,217199,
237564,217288,
237630,217310,
237778,217384,
237784,217379,
237866,217417,
237810,217392,
237838,217399,
237720,217338,
237721,217344,
237620,217274,
237630,217281,
237554,217246,
237596,217290,
237587,217274,
237672,217317,
237711,217343,
237859,217389,
237916,217412,
238079,217515,
238182,217567,
238363,217653,
238458,217669,
238604,217775,
238685,217799,
238821,217868,
238868,217905,
238984,217960,
239009,217963,
239098,218030,
239105,218019,
239183,218056,
239176,218044,
239242,218083,
239231,218071,
239306,218113,
239281,218091,
239336,218106,
239339,218115,
239396,218152,
239398,218147,
239488,218200,
239480,218186,
239565,218226,
239586,218228,
239649,218275,
239684,218265,
239742,218288,
239754,218307,
239820,218349,
239845,218363,
239924,218417,
239975,218416,
240057,218476,
240108,218496,
240221,218562,
240265,218584,
240360,218616,
240367,218619,
240367,218628,
240230,218550,
239980,218397,
239407,218090,
238679,217705,
237662,217216,
236742,216778,
235924,216421,
235460,216221,
235194,216115,
235116,216092,
235155,216125,
235315,216178,
235461,216276,
235691,216366,
235877,216466,
236107,216555,
236288,216643,
236450,216704,
236506,216737,
236550,216737,
236537,216743,
236505,216703,
236434,216692,
236400,216673,
236388,216675,
236476,216705,
236578,216752,
236720,216819,
236858,216882,
236995,216931,
237085,216964,
237130,216987,
237137,217003,
237136,216982,
237101,216968,
237038,216943,
236996,216915,
236937,216892,
236923,216884,
236922,216885,
236962,216890,
237022,216926,
237119,216985,
237217,217019,
237348,217112,
237490,217157,
237620,217222,
237774,217285,
237919,217368,
238032,217438,
238171,217498,
238291,217526,
238374,217604,
238457,217624,
238552,217678,
238577,217665,
238634,217727,
238666,217734,
238708,217757,
238735,217730,
238768,217789,
238793,217768,
238821,217808,
238815,217775,
238855,217824,
238885,217814,
238934,217864,
238956,217863,
239010,217891,
239047,217905,
239115,217954,
239156,217955,
239211,218009,
239258,217998,
239308,218061,
239351,218032,
239408,218108,
239471,218097,
239551,218183,
239604,218167,
239698,218240,
239774,218248,
239847,218328,
239920,218342,
240032,218409,
240069,218405,
240150,218484,
240141,218447,
240127,218449,
239949,218311,
239526,218110,
238827,217700,
237934,217284,
236888,216759,
236037,216416,
235390,216093,
235033,215993,
234889,215893,
234905,215949,
234971,215934,
235160,216068,
235368,216127,
235604,216252,
235832,216312,
236091,216474,
236267,216513,
236411,216614,
236481,216609,
236548,216663,
236507,216619,
236525,216655,
236438,216592,
236470,216637,
236462,216601,
236596,216683,
236666,216714,
236856,216820,
236951,216823,
237101,216930,
237161,216927,
237249,216998,
237195,216952,
237248,216980,
237155,216900,
237177,216942,
237106,216882,
237143,216921,
237113,216892,
237192,216956,
237200,216937,
237340,217019,
237419,217022,
237557,217135,
237668,217141,
237854,217288,
237956,217292,
238159,217408,
238258,217434,
238436,217555,
238516,217567,
238662,217670,
238731,217659,
238851,217757,
238881,217725,
238994,217825,
239019,217825,
239130,217900,
239121,217876,
239224,217962,
239229,217919,
239316,217987,
239312,217979,
239394,218022,
239384,218002,
239492,218057,
239464,218056,
239593,218113,
239613,218105,
239708,218197,
239722,218154,
239816,218250,
239848,218232,
239975,218315,
239974,218303,
240073,218381,
240074,218358,
240182,218417,
240159,218404,
240273,218484,
240258,218448,
240368,218544,
240382,218510,
240495,218611,
240498,218588,
240616,218663,
240632,218640,
240751,218721,
240760,218701,
240819,218766,
240768,218715,
240723,218693,
240439,218514,
240058,218323,
239349,217941,
238629,217581,
237563,217035,
236752,216687,
236073,216362,
235758,216251,
235567,216161,
235656,216249,
235743,216261,
236037,216411,
236238,216498,
236560,216650,
236757,216725,
237036,216868,
237145,216901,
237324,217003,
237337,216981,
237394,217035,
237323,216968,
237350,216994,
237250,216942,
237306,217003,
237298,216969,
237466,217065,
237532,217056,
237748,217197,
237810,217192,
237967,217284,
237973,217270,
238065,217333,
238012,217266,
238033,217300,
237944,217238,
237951,217263,
237873,217196,
237922,217259,
237875,217199,
237967,217290,
237953,217249,
238083,217340,
238129,217334,
238289,217441,
238360,217449,
238567,217563,
238651,217583,
238842,217715,
238911,217731,
239092,217826,
239157,217837,
239314,217926,
239328,217927,
239468,218024,
239439,218003,
239577,218073,
239555,218054,
239650,218109,
239604,218086,
239711,218137,
239678,218107,
239755,218150,
239740,218140,
239823,218189,
239800,218174,
239915,218231,
239864,218210,
239971,218277,
239967,218253,
240072,218316,
240038,218313,
240145,218360,
240166,218357,
240246,218405,
240222,218410,
240350,218461,
240349,218464,
240436,218510,
240419,218498,
240522,218553,
240518,218542,
240597,218598,
240613,218577,
240708,218630,
240724,218634,
240815,218685,
240829,218684,
240938,218736,
240941,218751,
241007,218796,
240967,218758,
240940,218750,
240677,218577,
240280,218383,
239633,218043,
238981,217700,
238036,217227,
237154,216838,
236471,216520,
236078,216361,
235879,216277,
235911,216301,
235997,216362,
236228,216484,
236460,216571,
236776,216729,
236988,216817,
237253,216945,
237409,217007,
237562,217082,
237634,217085,
237689,217134,
237645,217096,
237645,217093,
237567,217079,
237615,217082,
237614,217092,
237750,217154,
237881,217197,
238038,217274,
238137,217333,
238273,217402,
238328,217422,
238379,217463,
238368,217441,
238377,217438,
238334,217416,
238337,217426,
238278,217394,
238284,217394,
238278,217378,
238325,217389,
238339,217404,
238443,217469,
238514,217508,
238646,217558,
238760,217622,
238927,217684,
238996,217763,
239153,217807,
239238,217872,
239341,217917,
239402,217957,
239518,217997,
239572,218017,
239649,218064,
239673,218089,
239746,218121,
239770,218132,
239820,218141,
239822,218165,
239865,218159,
239880,218196,
239931,218197,
239931,218208,
239977,218230,
239995,218233,
240065,218278,
240047,218282,
240129,218293,
240131,218321,
240187,218323,
240218,218356,
240277,218375,
240304,218409,
240373,218427,
240414,218457,
240468,218473,
240481,218491,
240538,218508,
240566,218528,
240600,218541,
240628,218574,
240692,218591,
240726,218612,
240785,218620,
240812,218671,
240871,218669,
240906,218716,
240957,218723,
240993,218769,
241029,218758,
241067,218796,
241066,218774,
240950,218716,
240747,218581,
240321,218375,
239673,218009,
238974,217684,
238082,217210,
237220,216861,
236593,216544,
236211,216398,
236058,216323,
236078,216369,
236207,216425,
236392,216524,
236623,216596,
236877,216747,
237112,216830,
237326,216933,
237489,216993,
237609,217054,
237672,217083,
237709,217120,
237701,217077,
237685,217091,
237645,217053,
237667,217073,
237722,217085,
237823,217157,
237956,217180,
238099,217286,
238198,217306,
238313,217383,
238376,217381,
238409,217428,
238413,217397,
238412,217409,
238345,217375,
238350,217383,
238278,217337,
238302,217361,
238287,217334,
238333,217394,
238380,217368,
238486,217461,
238552,217460,
238692,217569,
238777,217576,
238944,217689,
239027,217698,
239196,217810,
239290,217824,
239410,217920,
239500,217929,
239619,218020,
239667,218018,
239762,218087,
239801,218084,
239875,218142,
239899,218129,
239948,218179,
239945,218167,
240023,218234,
240020,218181,
240087,218250,
240082,218238,
240147,218291,
240156,218259,
240220,218318,
240239,218301,
240315,218358,
240322,218327,
240395,218403,
240419,218380,
240519,218447,
240502,218419,
240596,218502,
240587,218476,
240691,218549,
240679,218508,
240772,218587,
240741,218554,
240830,218628,
240816,218594,
240904,218660,
240887,218617,
240999,218698,
240996,218670,
241101,218753,
241104,218734,
241202,218805,
241189,218768,
241246,218816,
241179,218759,
241115,218748,
240855,218586,
240514,218403,
239828,218063,
239255,217791,
238449,217352,
237668,217003,
236945,216669,
236562,216518,
236302,216383,
236323,216432,
236365,216446,
236592,216560,
236735,216615,
236996,216763,
237193,216823,
237413,216945,
237536,216995,
237707,217070,
237736,217060,
237817,217128,
237774,217077,
237800,217106,
237726,217061,
237800,217110,
237783,217077,
237943,217174,
237996,217166,
238152,217284,
238222,217277,
238326,217376,
238341,217321,
238409,217401,
238335,217319,
238382,217375,
238272,217295,
238307,217315,
238208,217255,
238250,217312,
238216,217255,
238278,217328,
238273,217300,
238409,217386,
238454,217384,
238612,217485,
238669,217498,
238860,217602,
238960,217614,
239110,217735,
239202,217731,
239361,217830,
239412,217847,
239555,217941,
239590,217930,
239704,218015,
239741,218002,
239856,218081,
239847,218055,
239930,218115,
239927,218111,
240001,218159,
239980,218116,
240076,218204,
240045,218163,
240134,218224,
240125,218183,
240232,218266,
240236,218240,
240322,218327,
240334,218289,
240426,218366,
240419,218349,
240506,218411,
240507,218387,
240597,218454,
240602,218437,
240689,218515,
240689,218476,
240783,218550,
240774,218525,
240860,218596,
240858,218568,
240946,218640,
240923,218599,
241012,218676,
240994,218634,
241078,218720,
241071,218670,
241140,218748,
241115,218710,
241216,218780,
241203,218755,
241299,218835,
241295,218804,
241380,218876,
241349,218826,
241372,218854,
241195,218752,
241012,218638,
240536,218377,
239929,218094,
239235,217727,
238572,217406,
237730,217008,
237156,216772,
236690,216543,
236588,216538,
236534,216501,
236712,216598,
236866,216651,
237144,216794,
237345,216876,
237633,217029,
237813,217086,
238046,217186,
238129,217213,
238283,217300,
238263,217287,
238325,217315,
238234,217273,
238275,217274,
238218,217252,
238311,217297,
238319,217296,
238502,217377,
238556,217396,
238703,217481,
238723,217481,
238817,217541,
238800,217525,
238855,217546,
238792,217502,
238831,217522,
238755,217483,
238781,217507,
238745,217468,
238798,217494,
238781,217499,
238865,217538,
238862,217523,
238987,217588,
239056,217619,
239195,217700,
239275,217714,
239446,217812,
239512,217859,
239657,217923,
239735,217960,
239883,218022,
239915,218058,
240059,218122,
240087,218155,
240200,218193,
240231,218201,
240298,218265,
240323,218255,
240408,218294,
240399,218308,
240473,218342,
240474,218342,
240540,218358,
240532,218360,
240605,218391,
240606,218386,
240657,218448,
240673,218435,
240710,218466,
240738,218454,
240791,218494,
240825,218493,
240872,218543,
240896,218539,
240974,218592,
240994,218599,
241055,218637,
241060,218627,
241143,218669,
241168,218676,
241213,218722,
241226,218725,
241287,218754,
241298,218746,
241332,218766,
241350,218769,
241403,218798,
241392,218799,
241449,218820,
241481,218836,
241532,218860,
241551,218869,
241596,218899,
241602,218912,
241656,218929,
241673,218929,
241708,218942,
241664,218933,
241613,218877,
241380,218774,
241050,218584,
240460,218283,
239816,217953,
239217,217663,
238575,217354,
237928,217069,
237498,216866,
237239,216754,
237205,216727,
237240,216778,
237419,216848,
237591,216938,
237816,217043,
238055,217151,
238268,217244,
238427,217308,
238542,217357,
238615,217390,
238682,217407,
238671,217404,
238670,217409,
238624,217382,
238637,217370,
238606,217391,
238663,217400,
238706,217416,
238818,217461,
238911,217524,
239016,217543,
239065,217583,
239131,217596,
239146,217640,
239179,217621,
239157,217637,
239167,217631,
239146,217620,
239146,217623,
239156,217625,
239192,217620,
239228,217654,
239280,217667,
239334,217726,
239421,217740,
239520,217803,
239611,217837,
239724,217895,
239822,217935,
239939,218010,
240051,218050,
240155,218093,
240238,218129,
240323,218196,
240391,218204,
240465,218258,
240508,218267,
240578,218320,
240624,218308,
240665,218377,
240727,218371,
240747,218403,
240766,218405,
240804,218438,
240829,218434,
240866,218456,
240899,218458,
240944,218499,
240958,218495,
241013,218532,
241029,218520,
241063,218572,
241100,218570,
241137,218601,
241170,218597,
241222,218652,
241249,218643,
241297,218686,
241329,218685,
241389,218738,
241413,218727,
241462,218763,
241466,218762,
241528,218796,
241538,218787,
241612,218842,
241617,218827,
241688,218881,
241700,218859,
241717,218919,
241707,218874,
241759,218949,
241763,218908,
241815,218957,
241817,218933,
241865,218987,
241878,218965,
241927,219016,
241927,218995,
241994,219064,
241982,219028,
242020,219068,
241970,218989,
241895,218987,
241666,218850,
241346,218694,
240818,218397,
240158,218094,
239550,217789,
239083,217578,
238546,217282,
238196,217153,
237939,217015,
237937,217026,
237995,217037,
238165,217147,
238322,217192,
238574,217343,
238742,217377,
238962,217506,
239066,217526,
239203,217627,
239230,217620,
239311,217670,
239259,217609,
239287,217637,
239200,217566,
239219,217616,
239163,217565,
239239,217606,
239247,217613,
239387,217680,
239417,217668,
239542,217741,
239526,217726,
239659,217796,
239621,217766,
239702,217845,
239650,217773,
239687,217817,
239656,217777,
239699,217822,
239648,217780,
239718,217838,
239690,217796,
239775,217874,
239790,217841,
239899,217936,
239945,217921,
240090,218022,
240135,218013,
240276,218123,
240316,218119,
240450,218192,
240496,218184,
240590,218264,
240623,218268,
240734,218341,
240743,218331,
240850,218410,
240842,218367,
240928,218456,
240917,218424,
241003,218479,
240997,218448,
241070,218512,
241038,218479,
241130,218563,
241110,218512,
241189,218577,
241177,218555,
241267,218617,
241224,218585,
241313,218654,
241286,218613,
241384,218693,
241363,218640,
241451,218720,
241426,218682,
241527,218752,
241505,218719,
241609,218789,
241572,218754,
241687,218826,
241650,218767,
241736,218846,
241725,218815,
241807,218888,
241770,218835,
241857,218903,
241831,218873,
241894,218947,
241874,218899,
241948,218956,
241901,218915,
241962,218977,
241935,218919,
242015,218976,
241965,218935,
242047,218996,
242026,218972,
242100,219021,
242074,218992,
242151,219043,
242124,219004,
242187,219070,
242092,218990,
242030,218971,
241784,218826,
241530,218701,
241008,218411,
240416,218148,
239805,217827,
239344,217653,
238871,217392,
238570,217287,
238331,217142,
238322,217171,
238312,217165,
238491,217269,
238584,217286,
238832,217432,
238963,217443,
239161,217563,
239240,217563,
239391,217685,
239416,217654,
239539,217721,
239508,217680,
239559,217736,
239501,217664,
239535,217737,
239472,217671,
239564,217750,
239566,217720,
239696,217807,
239720,217796,
239835,217875,
239854,217846,
239959,217936,
239926,217882,
240030,217957,
239984,217921,
240049,217958,
240016,217925,
240055,217963,
240017,217927,
240097,217988,
240079,217961,
240185,218038,
240184,218012,
240315,218081,
240338,218086,
240495,218181,
240532,218177,
240671,218260,
240714,218256,
240864,218349,
240870,218344,
240989,218432,
240992,218413,
241089,218474,
241064,218459,
241196,218503,
241146,218483,
241239,218549,
241207,218519,
241295,218558,
241244,218538,
241340,218598,
241287,218555,
241361,218606,
241323,218587,
241430,218640,
241361,218596,
241448,218667,
241423,218613,
241496,218674,
241450,218660,
241528,218696,
241508,218671,
241594,218719,
241546,218700,
241618,218750,
241575,218724,
241676,218777,
241649,218765,
241730,218805,
241719,218786,
241793,218844,
241772,218803,
241843,218860,
241805,218824,
241893,218876,
241865,218854,
241925,218875,
241907,218875,
241966,218919,
241935,218885,
241971,218946,
241976,218898,
242023,218950,
241997,218934,
242059,218968,
242057,218945,
242111,218990,
242097,218971,
242145,219001,
242141,218997,
242160,219014,
242075,218964,
241997,218910,
241732,218767,
241405,218600,
240842,218309,
240260,218033,
239724,217787,
239291,217568,
238858,217355,
238590,217262,
238411,217163,
238392,217167,
238416,217181,
238575,217245,
238711,217305,
238915,217412,
239064,217459,
239236,217544,
239327,217583,
239445,217650,
239490,217672,
239565,217697,
239562,217682,
239574,217700,
239541,217669,
239579,217697,
239567,217685,
239641,217736,
239703,217744,
239798,217795,
239848,217813,
239960,217866,
239992,217872,
240061,217910,
240068,217939,
240110,217943,
240088,217921,
240104,217941,
240074,217930,
240119,217959,
240134,217952,
240178,217967,
240188,217982,
240268,218019,
240318,218043,
240420,218089,
240475,218118,
240581,218176,
240653,218221,
240760,218258,
240816,218292,
240936,218338,
240982,218379,
241082,218416,
241106,218439,
241203,218472,
241207,218503,
241295,218504,
241289,218540,
241378,218566,
241393,218580,
241443,218585,
241435,218599,
241501,218613,
241473,218626,
241539,218628,
241542,218643,
241571,218659,
241567,218679,
241644,218658,
241640,218688,
241682,218702,
241687,218727,
241746,218735,
241753,218751,
241813,218744,
241804,218766,
241844,218788,
241863,218809,
241911,218803,
241930,218822,
241975,218834,
241974,218866,
242011,218876,
242035,218899,
242077,218903,
242097,218924,
242133,218927,
242123,218933,
242142,218942,
242175,218962,
242208,218973,
242207,218975,
242225,218987,
242260,218989,
242271,219015,
242299,219036,
242309,219020,
242341,219067,
242378,219071,
242394,219076,
242408,219077,
242395,219087,
242345,219031,
242198,218953,
241977,218820,
241645,218666,
241200,218407,
240631,218173,
240107,217909,
239744,217756,
239463,217600,
239275,217547,
239206,217484,
239233,217527,
239322,217532,
239434,217618,
239590,217668,
239745,217755,
239911,217811,
240054,217890,
240179,217941,
240281,218017,
240352,218020,
240391,218067,
240420,218049,
240438,218067,
240430,218041,
240466,218089,
240486,218076,
240544,218147,
240582,218124,
240654,218194,
240687,218179,
240746,218217,
240754,218200,
240761,218238,
240741,218221,
240748,218227,
240714,218196,
240712,218221,
240686,218192,
240697,218209,
240694,218190,
240718,218248,
240726,218196,
240794,218266,
240812,218245,
240903,218315,
240944,218307,
241061,218400,
241121,218399,
241241,218475,
241292,218476,
241399,218562,
241426,218534,
241508,218610,
241547,218589,
241606,218667,
241640,218630,
241672,218691,
241673,218667,
241718,218706,
241692,218676,
241753,218708,
241725,218681,
241775,218716,
241746,218692,
241797,218732,
241786,218700,
241823,218752,
241814,218705,
241871,218756,
241838,218726,
241900,218797,
241891,218749,
241944,218802,
241926,218757,
241971,218839,
241980,218796,
242039,218862,
242019,218830,
242101,218889,
242091,218838,
242167,218926,
242143,218888,
242235,218953,
242223,218925,
242313,218975,
242287,218966,
242350,219036,
242368,218990,
242437,219065,
242419,219021,
242453,219069,
242377,219002,
242338,218988,
242111,218854,
241893,218764,
241522,218539,
241166,218401,
240684,218132,
240329,218010,
240052,217852,
239931,217815,
239825,217752,
239890,217813,
239939,217812,
240096,217902,
240208,217929,
240418,218056,
240542,218090,
240709,218185,
240780,218196,
240933,218290,
240979,218284,
241080,218351,
241069,218346,
241162,218399,
241159,218369,
241266,218454,
241259,218431,
241378,218488,
241358,218464,
241423,218512,
241372,218478,
241415,218508,
241314,218451,
241340,218475,
241249,218406,
241278,218438,
241187,218361,
241226,218418,
241160,218362,
241192,218413,
241165,218377,
241238,218424,
241233,218402,
241338,218470,
241350,218464,
241476,218544,
241489,218542,
241615,218611,
241616,218601,
241738,218674,
241724,218644,
241814,218723,
241816,218685,
241899,218753,
241889,218729,
241966,218802,
241952,218758,
241999,218809,
241972,218754,
242027,218811,
242001,218773,
242058,218814,
242023,218793,
242077,218836,
242047,218814,
242099,218845,
242062,218801,
242119,218856,
242093,218812,
242146,218879,
242130,218825,
242171,218868,
242128,218853,
242180,218894,
242150,218844,
242234,218916,
242196,218877,
242282,218954,
242255,218879,
242328,218955,
242312,218928,
242383,218993,
242362,218962,
242443,219022,
242417,218978,
242502,219043,
242405,218977,
242391,218970,
242137,218816,
241938,218743,
241522,218512,
241176,218338,
240645,218062,
240308,217941,
239974,217768,
239845,217737,
239710,217639,
239788,217700,
239812,217703,
239992,217798,
240069,217815,
240279,217927,
240361,217946,
240564,218067,
240640,218064,
240781,218186,
240851,218154,
240963,218236,
240949,218211,
241044,218293,
241044,218248,
241152,218328,
241158,218324,
241252,218376,
241243,218351,
241330,218423,
241270,218365,
241328,218406,
241250,218355,
241270,218377,
241171,218315,
241155,218340,
241088,218265,
241135,218307,
241054,218252,
241114,218305,
241073,218265,
241184,218346,
241154,218313,
241265,218384,
241257,218368,
241389,218434,
241396,218420,
241519,218506,
241526,218498,
241638,218568,
241644,218557,
241770,218616,
241743,218597,
241844,218683,
241832,218644,
241906,218709,
241884,218684,
241958,218732,
241907,218687,
241972,218731,
241960,218707,
242013,218746,
241961,218708,
242017,218759,
241986,218722,
242051,218770,
242015,218732,
242080,218778,
242033,218745,
242109,218789,
242070,218741,
242128,218778,
242085,218763,
242161,218821,
242156,218791,
242204,218829,
242189,218817,
242279,218869,
242253,218854,
242338,218894,
242335,218872,
242406,218922,
242365,218895,
242378,218909,
242251,218820,
242105,218759,
241796,218595,
241502,218438,
241013,218193,
240571,217986,
240124,217787,
239874,217684,
239669,217566,
239623,217561,
239600,217558,
239705,217605,
239774,217641,
239945,217721,
240082,217779,
240264,217877,
240378,217910,
240538,217993,
240613,218030,
240733,218077,
240757,218085,
240815,218130,
240832,218123,
240865,218147,
240900,218161,
240994,218217,
241027,218215,
241091,218243,
241119,218250,
241146,218269,
241119,218246,
241131,218255,
241084,218221,
241096,218227,
241009,218183,
241023,218193,
240989,218168,
241001,218185,
240973,218167,
241004,218184,
241023,218189,
241069,218226,
241096,218217,
241168,218262,
241241,218282,
241329,218344,
241369,218352,
241470,218404,
241515,218425,
241588,218462,
241626,218488,
241690,218515,
241707,218523,
241765,218541,
241779,218569,
241834,218599,
241823,218600,
241857,218594,
241853,218606,
241877,218625,
241886,218631,
241915,218629,
241909,218626,
241942,218631,
241920,218665,
241966,218649,
241963,218658,
241989,218661,
241963,218657,
241988,218653,
241966,218677,
242013,218683,
242003,218705,
242049,218699,
242034,218719,
242101,218725,
242123,218761,
242182,218761,
242201,218775,
242243,218818,
242234,218796,
242239,218785,
242160,218750,
242020,218672,
241786,218544,
241449,218359,
240978,218139,
240440,217887,
240011,217687,
239652,217512,
239378,217390,
239207,217309,
239124,217245,
239125,217259,
239194,217298,
239332,217342,
239450,217427,
239617,217479,
239760,217571,
239890,217612,
239994,217668,
240080,217693,
240134,217716,
240158,217732,
240195,217761,
240220,217768,
240253,217794,
240283,217798,
240374,217837,
240392,217859,
240467,217902,
240509,217910,
240545,217929,
240543,217912,
240544,217931,
240533,217901,
240510,217910,
240500,217897,
240484,217902,
240447,217855,
240455,217872,
240475,217862,
240489,217894,
240521,217901,
240581,217945,
240646,217946,
240719,217998,
240794,218007,
240874,218077,
240957,218108,
241052,218161,
241126,218175,
241197,218236,
241277,218247,
241336,218287,
241371,218284,
241431,218336,
241453,218333,
241508,218391,
241522,218360,
241562,218412,
241585,218394,
241604,218423,
241646,218408,
241671,218470,
241672,218454,
241714,218482,
241715,218448,
241763,218493,
241741,218475,
241796,218518,
241770,218480,
241808,218537,
241824,218513,
241876,218555,
241888,218528,
241922,218586,
241919,218567,
241992,218621,
242001,218590,
242080,218660,
242085,218640,
242166,218701,
242159,218670,
242204,218734,
242122,218649,
242032,218618,
241750,218447,
241451,218332,
241007,218073,
240480,217865,
240000,217595,
239673,217488,
239366,217316,
239206,217285,
239093,217179,
239122,217225,
239155,217224,
239312,217317,
239431,217333,
239612,217455,
239725,217479,
239877,217575,
239968,217587,
240086,217671,
240131,217661,
240218,217724,
240236,217712,
240300,217763,
240298,217735,
240397,217811,
240415,217789,
240506,217868,
240551,217844,
240648,217933,
240652,217882,
240728,217949,
240706,217919,
240741,217961,
240688,217892,
240716,217935,
240648,217873,
240703,217958,
240638,217881,
240694,217933,
240661,217906,
240740,217966,
240723,217929,
240831,218010,
240849,217986,
240959,218059,
240970,218047,
241103,218141,
241141,218119,
241252,218212,
241250,218185,
241374,218268,
241387,218242,
241479,218325,
241461,218271,
241539,218343,
241534,218311,
241589,218393,
241591,218329,
241664,218417,
241625,218362,
241695,218428,
241661,218376,
241731,218449,
241688,218400,
241762,218453,
241745,218417,
241779,218472,
241760,218411,
241835,218489,
241795,218453,
241868,218505,
241829,218461,
241896,218534,
241873,218484,
241970,218545,
241952,218514,
242034,218599,
242026,218571,
242113,218629,
242090,218598,
242188,218656,
242150,218602,
242147,218641,
241997,218530,
241863,218481,
241513,218261,
241141,218093,
240562,217808,
240134,217639,
239693,217405,
239459,217313,
239186,217176,
239124,217163,
239030,217100,
239150,217185,
239215,217182,
239394,217285,
239453,217307,
239659,217415,
239728,217425,
239908,217525,
239938,217497,
240083,217598,
240060,217546,
240138,217623,
240093,217579,
240176,217647,
240135,217611,
240241,217686,
240290,217663,
240404,217752,
240431,217736,
240552,217823,
240517,217772,
240587,217831,
240541,217802,
240596,217852,
240539,217779,
240569,217821,
240520,217759,
240560,217810,
240501,217775,
240578,217820,
240546,217768,
240623,217853,
240625,217842,
240740,217893,
240766,217878,
240858,217958,
240881,217950,
240988,218040,
241022,218013,
241115,218088,
241151,218066,
241237,218152,
241251,218116,
241344,218175,
241322,218158,
241425,218228,
241385,218181,
241478,218263,
241444,218217,
241507,218281,
241483,218218,
241556,218281,
241497,218243,
241601,218324,
241552,218252,
241633,218339,
241589,218291,
241655,218347,
241621,218289,
241700,218371,
241674,218318,
241747,218379,
241707,218332,
241781,218412,
241779,218355,
241863,218450,
241833,218407,
241919,218468,
241921,218439,
242000,218524,
241994,218473,
242072,218552,
242041,218495,
242094,218558,
242003,218468,
241902,218433,
241630,218260,
241325,218130,
240807,217853,
240280,217653,
239813,217398,
239498,217269,
239157,217081,
239038,217069,
238864,216955,
238930,217008,
238950,217008,
239140,217124,
239252,217147,
239459,217258,
239544,217265,
239719,217377,
239778,217378,
239930,217468,
239928,217438,
240015,217510,
239968,217458,
240026,217509,
240014,217479,
240103,217545,
240132,217528,
240269,217607,
240265,217616,
240404,217662,
240389,217667,
240506,217727,
240478,217706,
240552,217737,
240500,217718,
240555,217737,
240481,217703,
240534,217733,
240468,217700,
240549,217739,
240510,217718,
240582,217754,
240573,217738,
240699,217811,
240689,217802,
240822,217872,
240852,217883,
241001,217935,
241008,217957,
241155,218029,
241162,218033,
241292,218104,
241288,218089,
241374,218155,
241384,218170,
241499,218197,
241473,218185,
241540,218222,
241534,218224,
241584,218246,
241578,218238,
241639,218274,
241612,218247,
241676,218284,
241659,218281,
241743,218320,
241713,218306,
241778,218337,
241736,218332,
241816,218363,
241786,218351,
241864,218383,
241825,218350,
241905,218407,
241872,218376,
241952,218425,
241937,218416,
242017,218432,
242016,218441,
242067,218491,
242089,218477,
242153,218520,
242151,218534,
242233,218564,
242200,218536,
242208,218553,
242068,218474,
241940,218381,
241622,218212,
241299,218058,
240766,217784,
240313,217572,
239904,217376,
239655,217278,
239424,217156,
239357,217139,
239314,217094,
239403,217142,
239465,217179,
239629,217262,
239739,217311,
239912,217395,
239994,217429,
240137,217517,
240189,217523,
240289,217559,
240286,217560,
240341,217599,
240342,217573,
240417,217613,
240403,217616,
240521,217666,
240573,217685,
240675,217738,
240722,217754,
240813,217817,
240816,217808,
240888,217840,
240878,217833,
240922,217859,
240880,217841,
240894,217831,
240849,217831,
240881,217831,
240852,217830,
240879,217847,
240905,217854,
240981,217870,
241009,217894,
241072,217938,
241099,217945,
241196,217987,
241238,218005,
241331,218037,
241377,218073,
241455,218089,
241486,218132,
241574,218157,
241581,218173,
241634,218205,
241641,218210,
241691,218220,
241695,218233,
241752,218238,
241741,218256,
241793,218245,
241762,218260,
241809,218261,
241788,218275,
241820,218276,
241813,218276,
241854,218296,
241851,218304,
241884,218305,
241864,218319,
241889,218324,
241911,218351,
241948,218340,
241944,218349,
241981,218354,
241968,218364,
242010,218356,
242023,218378,
242049,218392,
242067,218400,
242100,218428,
242128,218429,
242168,218476,
242169,218479,
242205,218477,
242212,218488,
242225,218481,
242176,218448,
242106,218404,
241917,218310,
241655,218150,
241269,217975,
240738,217684,
240179,217451,
239756,217233,
239385,217088,
239100,216915,
238895,216858,
238812,216806,
238811,216811,
238892,216829,
239021,216908,
239150,216942,
239289,217021,
239418,217063,
239525,217129,
239619,217167,
239684,217195,
239708,217210,
239742,217239,
239752,217222,
239767,217237,
239796,217225,
239842,217281,
239931,217297,
240038,217351,
240111,217382,
240168,217438,
240247,217446,
240280,217477,
240279,217457,
240310,217488,
240301,217456,
240284,217487,
240287,217448,
240272,217469,
240275,217446,
240293,217492,
240317,217480,
240351,217516,
240407,217504,
240469,217562,
240541,217585,
240625,217647,
240717,217672,
240792,217736,
240878,217734,
240937,217821,
241008,217813,
241092,217868,
241134,217883,
241209,217945,
241239,217938,
241279,217974,
241303,217959,
241339,217993,
241364,217980,
241396,218023,
241380,218003,
241419,218042,
241416,218026,
241462,218062,
241453,218050,
241515,218090,
241512,218061,
241542,218114,
241557,218083,
241606,218138,
241621,218115,
241671,218174,
241653,218135,
241719,218192,
241720,218159,
241765,218205,
241757,218173,
241819,218240,
241825,218212,
241873,218274,
241897,218250,
241953,218314,
241966,218282,
242034,218356,
242054,218332,
242094,218374,
242067,218326,
242097,218367,
242005,218295,
241871,218232,
241575,218061,
241240,217920,
240741,217625,
240233,217428,
239744,217169,
239426,217026,
239107,216848,
238922,216809,
238790,216718,
238829,216779,
238886,216796,
239017,216873,
239144,216899,
239278,216999,
239405,217015,
239537,217098,
239580,217095,
239681,217151,
239680,217139,
239721,217177,
239701,217135,
239741,217185,
239727,217147,
239807,217217,
239837,217203,
239956,217285,
239999,217292,
240126,217361,
240153,217340,
240209,217405,
240216,217382,
240268,217412,
240209,217371,
240228,217405,
240177,217327,
240205,217388,
240160,217348,
240220,217402,
240204,217358,
240261,217430,
240268,217375,
240354,217449,
240360,217436,
240462,217504,
240495,217486,
240626,217581,
240652,217571,
240786,217676,
240834,217653,
240941,217759,
240987,217721,
241069,217808,
241081,217764,
241153,217842,
241161,217809,
241235,217895,
241227,217850,
241313,217904,
241300,217876,
241373,217941,
241329,217913,
241404,217972,
241374,217936,
241448,217988,
241424,217948,
241486,218014,
241507,218000,
241551,218043,
241534,218008,
241626,218072,
241609,218041,
241688,218115,
241664,218074,
241749,218131,
241713,218111,
241790,218164,
241755,218147,
241838,218191,
241816,218154,
241903,218209,
241890,218190,
241998,218268,
241975,218236,
242073,218303,
242052,218267,
242138,218332,
242060,218274,
242048,218276,
241814,218131,
241596,218019,
241163,217779,
240743,217587,
240157,217276,
239775,217122,
239323,216912,
239099,216822,
238825,216670,
238784,216676,
238745,216634,
238861,216734,
238921,216724,
239145,216845,
239212,216847,
239392,216974,
239453,216964,
239588,217060,
239584,217006,
239682,217097,
239643,217062,
239679,217123,
239631,217042,
239697,217106,
239686,217074,
239812,217160,
239824,217145,
239955,217225,
239982,217207,
240082,217288,
240059,217247,
240154,217308,
240083,217249,
240142,217316,
240063,217227,
240118,217277,
240034,217235,
240104,217283,
240065,217244,
240149,217286,
240122,217265,
240197,217337,
240212,217305,
240332,217395,
240370,217382,
240515,217472,
240551,217477,
240692,217564,
240723,217557,
240863,217650,
240868,217633,
240995,217682,
241002,217663,
241079,217752,
241097,217716,
241172,217796,
241157,217762,
241236,217805,
241210,217802,
241283,217845,
241267,217804,
241327,217892,
241307,217838,
241394,217908,
241363,217869,
241443,217924,
241414,217879,
241488,217964,
241446,217914,
241535,217973,
241512,217941,
241605,218008,
241573,217970,
241667,218041,
241625,217995,
241719,218071,
241678,218025,
241748,218101,
241731,218046,
241804,218108,
241790,218082,
241880,218152,
241847,218116,
241937,218196,
241913,218141,
242012,218215,
241999,218178,
242062,218236,
242022,218188,
242013,218229,
241883,218100,
241739,218054,
241402,217848,
241025,217678,
240449,217357,
239970,217181,
239472,216914,
239142,216766,
238739,216559,
238551,216505,
238420,216409,
238485,216475,
238518,216474,
238727,216587,
238824,216605,
239030,216729,
239113,216734,
239277,216825,
239304,216839,
239427,216903,
239432,216867,
239500,216936,
239431,216874,
239487,216931,
239451,216881,
239522,216948,
239533,216928,
239673,217003,
239709,217007,
239869,217104,
239864,217096,
239994,217155,
239984,217135,
240041,217190,
239972,217137,
240029,217173,
239949,217107,
239997,217161,
239945,217130,
240022,217179,
239989,217151,
240072,217198,
240081,217192,
240200,217270,
240223,217267,
240378,217344,
240373,217364,
240548,217419,
240553,217445,
240710,217499,
240714,217510,
240844,217578,
240855,217581,
240953,217632,
240956,217623,
241054,217681,
241053,217672,
241138,217715,
241121,217708,
241205,217743,
241190,217725,
241261,217780,
241230,217753,
241318,217790,
241284,217781,
241350,217831,
241351,217808,
241416,217847,
241380,217835,
241465,217870,
241451,217860,
241522,217903,
241515,217893,
241584,217947,
241569,217913,
241666,217974,
241657,217954,
241713,218000,
241695,217969,
241764,218015,
241761,218024,
241834,218045,
241794,218027,
241873,218086,
241860,218066,
241940,218099,
241911,218090,
241961,218125,
241939,218121,
242043,218155,
242040,218147,
242103,218191,
242097,218190,
242107,218188,
241996,218149,
241895,218079,
241593,217891,
241231,217726,
240688,217442,
240162,217206,
239628,216932,
239233,216773,
238841,216580,
238603,216472,
238450,216398,
238450,216412,
238494,216428,
238657,216524,
238772,216539,
238953,216649,
239038,216678,
239184,216749,
239244,216761,
239338,216808,
239368,216817,
239402,216839,
239399,216810,
239415,216831,
239387,216799,
239444,216853,
239483,216845,
239588,216915,
239654,216910,
239765,216985,
239821,217005,
239918,217070,
239929,217060,
239981,217092,
239998,217086,
240027,217097,
239980,217090,
240018,217102,
239997,217080,
240033,217107,
240031,217117,
240082,217128,
240103,217130,
240175,217180,
240235,217191,
240310,217249,
240374,217275,
240471,217321,
240518,217357,
240612,217392,
240661,217425,
240759,217471,
240802,217489,
240895,217508,
240915,217554,
240998,217573,
241027,217594,
241072,217639,
241094,217638,
241153,217657,
241162,217670,
241215,217701,
241232,217708,
241274,217728,
241288,217740,
241300,217754,
241309,217756,
241354,217752,
241349,217755,
241394,217784,
241425,217815,
241483,217811,
241486,217859,
241522,217847,
241534,217865,
241588,217888,
241597,217889,
241650,217914,
241666,217923,
241710,217945,
241723,217962,
241776,217963,
241795,217989,
241819,218009,
241810,218000,
241849,218009,
241878,218035,
241919,218037,
241937,218042,
241979,218078,
241996,218075,
242032,218092,
242061,218109,
242092,218126,
242089,218128,
242129,218153,
242081,218122,
242020,218061,
241823,217980,
241532,217799,
241109,217608,
240602,217314,
240019,217067,
239571,216828,
239156,216678,
238853,216503,
238593,216418,
238492,216356,
238498,216364,
238575,216399,
238701,216469,
238847,216522,
238981,216589,
239114,216637,
239223,216697,
239310,216718,
239354,216737,
239385,216749,
239407,216758,
239372,216754,
239363,216762,
239369,216749,
239419,216772,
239463,216788,
239557,216824,
239660,216870,
239751,216924,
239815,216941,
239889,217002,
239936,216991,
239987,217020,
239972,217025,
240000,217060,
240020,217027,
240023,217041,
240036,217024,
240048,217062,
240082,217055,
240127,217101,
240167,217104,
240234,217149,
240297,217170,
240388,217229,
240456,217238,
240527,217299,
240615,217334,
240701,217391,
240745,217395,
240849,217439,
240895,217440,
240966,217501,
241018,217508,
241071,217542,
241110,217567,
241157,217593,
241183,217587,
241230,217612,
241244,217618,
241279,217657,
241284,217652,
241324,217680,
241332,217666,
241369,217717,
241386,217689,
241422,217725,
241442,217708,
241484,217763,
241480,217744,
241529,217786,
241544,217775,
241598,217825,
241609,217808,
241651,217853,
241663,217834,
241713,217877,
241716,217856,
241774,217914,
241773,217902,
241815,217946,
241822,217921,
241875,217983,
241858,217929,
241892,217986,
241883,217951,
241928,218011,
241916,217988,
241979,218038,
241968,218002,
242013,218057,
242004,218011,
242057,218074,
242069,218040,
242144,218096,
242116,218060,
242153,218109,
242088,218046,
242023,218035,
241776,217863,
241528,217770,
241083,217504,
240590,217294,
239977,216977,
239536,216798,
239089,216557,
238763,216448,
238500,216284,
238386,216277,
238339,216230,
238446,216300,
238545,216310,
238719,216408,
238822,216430,
238982,216547,
239073,216556,
239204,216639,
239214,216614,
239280,216669,
239247,216619,
239283,216676,
239244,216600,
239269,216644,
239266,216609,
239352,216696,
239401,216681,
239531,216777,
239572,216747,
239718,216865,
239717,216828,
239819,216896,
239801,216867,
239872,216932,
239818,216874,
239887,216919,
239818,216891,
239882,216924,
239856,216902,
239945,216973,
239930,216929,
240053,217003,
240043,216988,
240172,217068,
240193,217057,
240315,217151,
240365,217142,
240489,217224,
240532,217214,
240647,217327,
240671,217299,
240796,217390,
240802,217351,
240895,217426,
240891,217388,
240977,217475,
240990,217454,
241060,217514,
241029,217480,
241129,217538,
241086,217482,
241152,217573,
241138,217530,
241204,217575,
241198,217531,
241259,217597,
241226,217557,
241284,217612,
241280,217578,
241359,217644,
241319,217611,
241411,217667,
241379,217631,
241459,217705,
241454,217657,
241521,217719,
241505,217703,
241608,217753,
241570,217722,
241659,217790,
241634,217750,
241709,217814,
241683,217774,
241762,217833,
241752,217789,
241807,217864,
241778,217834,
241844,217881,
241803,217853,
241868,217902,
241834,217853,
241911,217913,
241885,217872,
241980,217944,
241934,217913,
242010,217960,
241981,217932,
242026,217986,
241950,217923,
241915,217923,
241675,217758,
241442,217657,
240969,217392,
240496,217171,
239870,216846,
239435,216700,
238955,216428,
238667,216328,
238359,216166,
238267,216147,
238163,216088,
238289,216168,
238345,216176,
238538,216289,
238620,216300,
238805,216401,
238859,216408,
239021,216495,
239019,216479,
239109,216554,
239067,216487,
239124,216525,
239058,216463,
239097,216523,
239079,216482,
239185,216561,
239219,216550,
239349,216622,
239386,216615,
239502,216699,
239527,216683,
239623,216747,
239592,216697,
239642,216751,
239566,216708,
239592,216743,
239558,216674,
239608,216748,
239578,216682,
239665,216752,
239630,216730,
239734,216783,
239718,216754,
239856,216842,
239874,216842,
240033,216929,
240064,216937,
240229,217025,
240252,217021,
240404,217128,
240429,217098,
240572,217188,
240581,217165,
240692,217253,
240701,217232,
240803,217330,
240805,217295,
240875,217366,
240857,217322,
240978,217417,
240933,217367,
241012,217433,
240997,217388,
241076,217454,
241040,217408,
241130,217488,
241114,217439,
241166,217498,
241143,217445,
241228,217536,
241205,217483,
241287,217578,
241284,217520,
241351,217600,
241343,217552,
241422,217622,
241403,217572,
241471,217665,
241452,217620,
241546,217683,
241517,217642,
241618,217720,
241575,217672,
241665,217752,
241638,217709,
241713,217773,
241666,217724,
241735,217790,
241713,217742,
241804,217814,
241761,217773,
241861,217838,
COM4 disconnected!
