COM4 connected!
254787,239102,
254939,239217,
254892,239153,
255026,239250,
254981,239196,
255100,239294,
255044,239225,
255160,239315,
255107,239249,
255233,239345,
255133,239253,
255243,239351,
255195,239280,
255309,239359,
255218,239288,
255328,239383,
255253,239303,
255363,239377,
255277,239302,
255389,239396,
255317,239316,
255438,239414,
255372,239339,
255480,239440,
255412,239356,
255521,239443,
255474,239375,
255592,239486,
255529,239414,
255651,239516,
255595,239441,
255717,239544,
255643,239459,
255756,239537,
255667,239480,
255796,239581,
255723,239493,
255845,239583,
255778,239516,
255904,239612,
255840,239562,
255961,239634,
255893,239585,
256034,239662,
255969,239607,
256074,239679,
255979,239620,
255966,239609,
255632,239404,
255248,239239,
254542,238889,
254139,238734,
253662,238519,
253525,238452,
253258,238315,
253288,238335,
253147,238274,
253255,238327,
253190,238302,
253352,238400,
253323,238362,
253516,238461,
253484,238442,
253666,238530,
253650,238508,
253798,238586,
253751,238546,
253875,238635,
253805,238556,
253881,238620,
253758,238546,
253859,238593,
253774,238542,
253869,238613,
253788,238563,
253924,238637,
253843,238570,
253957,238645,
253868,238578,
253959,238624,
253845,238573,
253924,238593,
253816,238553,
253870,238572,
253762,238503,
253822,238543,
253746,238480,
253810,238533,
253736,238498,
253832,238558,
253788,238519,
253916,238573,
253867,238545,
254005,238612,
253960,238572,
254098,238648,
254047,238605,
254182,238696,
254155,238655,
254277,238741,
254248,238697,
254355,238774,
254334,238737,
254433,238791,
254379,238757,
254498,238811,
254428,238773,
254556,238840,
254485,238783,
254584,238849,
254528,238793,
254613,238854,
254566,238817,
254656,238873,
254597,238847,
254716,238904,
254670,238857,
254766,238920,
254738,238898,
254840,238948,
254804,238904,
254893,238966,
254859,238942,
254964,239017,
254945,238971,
255044,239041,
255027,239012,
255132,239065,
255107,239026,
255197,239104,
255168,239077,
255267,239135,
255253,239112,
255350,239162,
255308,239124,
255421,239182,
255378,239143,
255472,239216,
255442,239181,
255535,239238,
255520,239211,
255611,239271,
255598,239245,
255709,239325,
255689,239285,
255768,239337,
255712,239303,
255699,239297,
255395,239102,
255033,238937,
254368,238602,
253898,238407,
253439,238171,
253215,238106,
252995,237977,
252940,237978,
252861,237919,
252909,237968,
252907,237942,
253005,238021,
253027,238023,
253158,238089,
253177,238083,
253306,238156,
253320,238148,
253450,238208,
253431,238191,
253512,238244,
253483,238191,
253511,238240,
253447,238197,
253470,238213,
253419,238171,
253473,238234,
253454,238186,
253513,238240,
253509,238216,
253566,238239,
253507,238193,
253571,238230,
253512,238201,
253550,238215,
253494,238177,
253520,238191,
253422,238147,
253492,238185,
253419,238147,
253479,238166,
253436,238149,
253523,238198,
253501,238156,
253602,238223,
253585,238201,
253677,238247,
253698,238253,
253803,238298,
253826,238297,
253945,238360,
253960,238338,
254071,238411,
254075,238410,
254189,238446,
254145,238448,
254239,238495,
254223,238476,
254313,238504,
254284,238496,
254355,238513,
254324,238503,
254392,238557,
254361,238551,
254446,238570,
254405,238542,
254499,238603,
254479,238579,
254560,238616,
254546,238594,
254630,238643,
254614,238634,
254717,238667,
254688,238668,
254782,238705,
254774,238703,
254865,238736,
254884,238742,
254950,238784,
254942,238803,
255050,238827,
255033,238845,
255134,238856,
255139,238868,
255229,238895,
255227,238908,
255306,238924,
255286,238929,
255367,238944,
255343,238966,
255417,238967,
255381,238982,
255462,238987,
255465,238996,
255543,239007,
255559,239039,
255644,239069,
255642,239082,
255720,239105,
255690,239094,
255719,239090,
255570,239011,
255326,238867,
254766,238605,
254187,238295,
253558,238036,
253208,237867,
252884,237748,
252794,237703,
252680,237655,
252688,237663,
252697,237662,
252818,237706,
252830,237748,
252992,237805,
253049,237829,
253175,237888,
253227,237934,
253370,237961,
253386,237997,
253462,238027,
253449,238020,
253490,238011,
253438,238001,
253455,237996,
253411,237988,
253431,237993,
253424,237981,
253487,238009,
253475,238020,
253530,238022,
253535,238031,
253569,238034,
253519,238014,
253548,238005,
253487,237990,
253487,237993,
253431,237972,
253435,237966,
253400,237939,
253416,237931,
253395,237936,
253422,237944,
253443,237952,
253490,237963,
253517,237980,
253598,238006,
253613,238016,
253698,238038,
253720,238102,
253793,238094,
253840,238130,
253899,238129,
253948,238165,
254006,238166,
254023,238207,
254084,238215,
254112,238231,
254155,238228,
254145,238252,
254198,238262,
254206,238277,
254272,238271,
254259,238295,
254302,238287,
254305,238321,
254349,238306,
254351,238332,
254373,238314,
254414,238355,
254423,238354,
254455,238372,
254478,238372,
254491,238394,
254542,238372,
254542,238410,
254589,238407,
254618,238443,
254648,238418,
254679,238471,
254727,238435,
254726,238485,
254769,238467,
254795,238507,
254844,238476,
254858,238511,
254876,238509,
254914,238563,
254946,238537,
254983,238575,
255035,238560,
255049,238606,
255112,238604,
255146,238655,
255186,238650,
255233,238685,
255264,238658,
255249,238685,
255134,238599,
254858,238449,
254413,238208,
253887,237992,
253421,237771,
253078,237655,
252882,237525,
252735,237492,
252691,237448,
252685,237470,
252742,237469,
252829,237536,
252892,237568,
253002,237637,
253112,237660,
253217,237748,
253312,237750,
253411,237832,
253494,237827,
253533,237863,
253560,237850,
253546,237884,
253526,237848,
253526,237884,
253498,237811,
253522,237879,
253553,237841,
253597,237914,
253615,237882,
253657,237930,
253650,237868,
253650,237921,
253628,237871,
253621,237905,
253586,237836,
253560,237874,
253518,237815,
253522,237850,
253487,237776,
253495,237852,
253471,237791,
253530,237853,
253517,237816,
253577,237867,
253600,237837,
253680,237926,
253692,237887,
253773,237962,
253786,237930,
253874,238016,
253887,237970,
253970,238052,
254002,237998,
254061,238080,
254062,238041,
254133,238114,
254141,238069,
254214,238155,
254230,238112,
254261,238184,
254295,238120,
254335,238216,
254331,238141,
254393,238237,
254416,238175,
254467,238260,
254453,238201,
254514,238281,
254539,238228,
254587,238310,
254572,238260,
254645,238330,
254631,238276,
254697,238359,
254718,238297,
254800,238391,
254773,238341,
254846,238427,
254866,238377,
254919,238442,
254908,238393,
254973,238474,
254973,238422,
255061,238500,
255034,238454,
255120,238522,
255100,238451,
255165,238545,
255157,238481,
255242,238567,
255228,238525,
255305,238599,
255307,238541,
255345,238611,
255282,238514,
255190,238526,
254837,238290,
254444,238137,
253860,237824,
253438,237689,
253024,237444,
252868,237411,
252637,237259,
252667,237319,
252585,237250,
252683,237331,
252668,237296,
252825,237399,
252832,237365,
252989,237467,
253008,237460,
253157,237566,
253143,237510,
253255,237603,
253218,237523,
253267,237624,
253199,237529,
253252,237591,
253157,237483,
253230,237585,
253163,237511,
253271,237609,
253240,237532,
253316,237645,
253251,237541,
253357,237637,
253271,237545,
253332,237617,
253231,237511,
253266,237591,
253171,237501,
253206,237557,
253125,237460,
253178,237552,
253128,237469,
253195,237551,
253161,237469,
253262,237568,
253228,237498,
253331,237595,
253285,237547,
253437,237633,
253430,237594,
253548,237693,
253522,237637,
253657,237721,
253601,237676,
253728,237756,
253680,237702,
253790,237804,
253754,237716,
253861,237814,
253793,237751,
253889,237834,
253843,237750,
253930,237859,
253861,237769,
253959,237861,
253896,237777,
253979,237865,
253918,237783,
254010,237882,
253940,237790,
254042,237879,
253970,237810,
254081,237899,
254013,237840,
254136,237916,
254061,237841,
254153,237925,
254094,237862,
254220,237967,
254147,237873,
254243,237972,
254171,237891,
254299,237985,
254211,237898,
254346,238006,
254293,237951,
254424,238043,
254355,237962,
254510,238097,
254476,238027,
254596,238123,
254539,238049,
254643,238134,
254497,238034,
254435,238024,
254034,237787,
253694,237662,
253198,237381,
252898,237288,
252556,237073,
252433,237039,
252225,236910,
252214,236977,
252139,236872,
252225,236963,
252193,236893,
252328,237027,
252300,236949,
252449,237075,
252453,237016,
252571,237137,
252526,237036,
252648,237145,
252555,237064,
252646,237148,
252512,237039,
252577,237093,
252505,237015,
252572,237092,
252487,237029,
252592,237107,
252533,237042,
252654,237122,
252560,237051,
252641,237130,
252563,237034,
252633,237101,
252528,237013,
252601,237103,
252506,236980,
252568,237069,
252478,236988,
252557,237066,
252479,236974,
252585,237059,
252498,236994,
252608,237063,
252558,237014,
252680,237102,
252600,237028,
252730,237122,
252696,237043,
252790,237146,
252752,237075,
252882,237182,
252822,237117,
252936,237223,
252868,237130,
252986,237218,
252927,237142,
253064,237249,
252978,237151,
253073,237256,
253011,237195,
253109,237277,
253030,237194,
253139,237284,
253067,237204,
253171,237299,
253101,237218,
253194,237314,
253148,237211,
253250,237341,
253194,237249,
253317,237353,
253244,237260,
253355,237374,
253322,237288,
253424,237393,
253370,237311,
253488,237421,
253460,237347,
253550,237432,
253488,237378,
253612,237480,
253555,237401,
253675,237502,
253618,237424,
253728,237534,
253690,237433,
253824,237548,
253758,237490,
253907,237591,
253849,237520,
253989,237643,
253951,237559,
254063,237669,
253971,237578,
253972,237628,
253672,237403,
253391,237294,
252844,237014,
252579,236921,
252174,236687,
252034,236657,
251761,236493,
251762,236533,
251635,236423,
251720,236500,
251647,236450,
251798,236541,
251774,236498,
251932,236612,
251896,236572,
252071,236684,
252037,236629,
252164,236725,
252068,236649,
252197,236716,
252081,236636,
252151,236707,
252031,236632,
252110,236674,
252027,236611,
252127,236691,
252065,236638,
252203,236718,
252109,236650,
252229,236724,
252141,236667,
252257,236738,
252140,236660,
252233,236716,
252104,236628,
252191,236687,
252057,236614,
252155,236676,
252062,236592,
252167,236659,
252085,236620,
252213,236681,
252123,236642,
252254,236705,
252188,236686,
252312,236725,
252249,236688,
252385,236755,
252360,236745,
252488,236801,
252447,236766,
252568,236836,
252527,236804,
252627,236843,
252554,236814,
252678,236866,
252632,236825,
252727,236910,
252672,236862,
252787,236918,
252738,236884,
252840,236945,
252789,236901,
252897,236960,
252849,236932,
252987,236983,
252923,236943,
253029,237023,
252977,236981,
253114,237051,
253055,237020,
253178,237073,
253126,237030,
253242,237101,
253197,237082,
253316,237146,
253268,237115,
253389,237166,
253337,237121,
253446,237214,
253393,237157,
253520,237232,
253497,237208,
253619,237253,
253612,237257,
253732,237320,
253710,237285,
253819,237351,
253786,237327,
253876,237358,
253736,237268,
253551,237194,
253076,236951,
252681,236762,
252169,236518,
251908,236401,
251594,236259,
251498,236199,
251334,236109,
251325,236134,
251263,236090,
251375,236148,
251355,236126,
251469,236200,
251491,236178,
251611,236264,
251613,236251,
251744,236306,
251708,236291,
251767,236320,
251712,236276,
251763,236310,
251668,236251,
251698,236280,
251620,236236,
251693,236261,
251664,236249,
251724,236286,
251701,236278,
251773,236305,
251745,236284,
251792,236316,
251741,236272,
251771,236295,
251689,236264,
251725,236268,
251654,236227,
251687,236256,
251633,236233,
251682,236255,
251652,236230,
251753,236263,
251710,236235,
251786,236280,
251775,236282,
251875,236309,
251840,236306,
251930,236371,
251930,236355,
252006,236377,
251990,236386,
252091,236416,
252065,236415,
252189,236443,
252149,236458,
252220,236469,
252223,236488,
252274,236490,
252273,236499,
252357,236524,
252334,236525,
252415,236555,
252399,236548,
252467,236562,
252434,236562,
252500,236579,
252477,236573,
252552,236605,
252539,236587,
252582,236614,
252564,236608,
252652,236619,
252649,236629,
252701,236660,
252693,236662,
252768,236685,
252766,236684,
252847,236700,
252836,236717,
252890,236724,
252923,236756,
253011,236788,
253045,236797,
253133,236830,
253154,236850,
253259,236880,
253285,236926,
253352,236925,
253343,236928,
253362,236907,
253147,236811,
252812,236639,
252362,236441,
251940,236225,
251573,236073,
251323,235943,
251129,235860,
251026,235780,
250946,235766,
250935,235748,
250952,235784,
251024,235803,
251086,235831,
251175,235869,
251255,235922,
251344,235930,
251393,235979,
251452,235980,
251469,236018,
251478,235999,
251468,236009,
251441,235987,
251416,235993,
251422,235959,
251432,235988,
251469,235986,
251482,236033,
251530,236020,
251557,236043,
251565,236017,
251575,236055,
251583,236021,
251551,236027,
251540,235997,
251501,236008,
251494,235975,
251465,236002,
251474,235962,
251472,235991,
251487,235976,
251518,236006,
251533,235980,
251579,236028,
251624,236023,
251673,236065,
251727,236062,
251774,236127,
251843,236116,
251880,236163,
251930,236174,
251990,236218,
252023,236202,
252081,236253,
252136,236236,
252172,236291,
252200,236272,
252248,236311,
252289,236296,
252319,236361,
252334,236323,
252396,236384,
252413,236356,
252460,236426,
252492,236397,
252532,236460,
252542,236409,
252570,236480,
252582,236429,
252666,236489,
252689,236453,
252731,236535,
252749,236506,
252830,236593,
252855,236538,
252944,236635,
252981,236605,
253061,236696,
253121,236657,
253240,236772,
253303,236733,
253421,236857,
253490,236832,
253609,236923,
253652,236899,
253720,236982,
253686,236888,
253542,236871,
253166,236615,
252667,236433,
252073,236118,
251666,235992,
251317,235788,
251199,235781,
251061,235675,
251049,235729,
251056,235673,
251138,235775,
251184,235751,
251331,235876,
251398,235845,
251569,235969,
251627,235944,
251766,236060,
251788,236040,
251907,236117,
251856,236043,
251892,236115,
251860,236036,
251900,236108,
251858,236043,
251943,236150,
251937,236105,
252065,236180,
252054,236148,
252170,236235,
252125,236166,
252203,236258,
252146,236161,
252193,236239,
252069,236140,
252105,236202,
252011,236113,
252061,236203,
251989,236113,
252079,236202,
252044,236123,
252141,236213,
252131,236160,
252249,236271,
252237,236217,
252387,236333,
252382,236266,
252489,236380,
252511,236323,
252630,236430,
252629,236380,
252738,236481,
252745,236425,
252849,236525,
252831,236456,
252937,236563,
252918,236484,
253017,236597,
252987,236532,
253085,236624,
253066,236565,
253170,236661,
253126,236591,
253227,236675,
253173,236613,
253280,236712,
253236,236639,
253332,236709,
253278,236651,
253378,236745,
253345,236686,
253452,236769,
253439,236734,
253589,236826,
253561,236781,
253683,236884,
253680,236847,
253832,236944,
253828,236901,
253965,237009,
253922,236928,
253972,236985,
253734,236829,
253482,236720,
252885,236408,
252359,236230,
251760,235926,
251485,235865,
251184,235659,
251135,235714,
250990,235594,
251082,235684,
251043,235631,
251201,235743,
251228,235710,
251378,235833,
251394,235781,
251541,235888,
251531,235857,
251666,235939,
251603,235900,
251685,235966,
251600,235876,
251661,235948,
251546,235862,
251620,235942,
251590,235855,
251722,235969,
251710,235905,
251825,236029,
251792,235959,
251910,236057,
251853,235976,
251928,236068,
251835,235976,
251909,236057,
251813,235956,
251837,236032,
251746,235934,
251822,236019,
251745,235934,
251859,236022,
251800,235953,
251921,236081,
251914,236004,
252083,236113,
252055,236061,
252219,236187,
252217,236136,
252376,236235,
252351,236199,
252515,236318,
252475,236251,
252644,236372,
252615,236296,
252769,236425,
252718,236361,
252874,236465,
252828,236387,
252941,236495,
252889,236403,
253004,236513,
252945,236439,
253074,236541,
252986,236460,
253110,236547,
253045,236464,
253152,236575,
253074,236484,
253181,236581,
253119,236506,
253218,236597,
253166,236529,
253306,236628,
253272,236586,
253438,236693,
253407,236623,
253576,236745,
253550,236687,
253714,236793,
253698,236744,
253836,236862,
253739,236777,
253744,236795,
253386,236577,
253020,236431,
252363,236088,
251897,235939,
251367,235697,
251186,235632,
250906,235446,
250913,235492,
250770,235403,
250862,235499,
250822,235435,
250967,235536,
250945,235493,
251130,235617,
251123,235563,
251274,235663,
251229,235640,
251342,235684,
251236,235624,
251348,235700,
251201,235617,
251271,235651,
251147,235597,
251257,235634,
251167,235585,
251301,235664,
251240,235635,
251390,235689,
251322,235657,
251415,235719,
251339,235649,
251431,235724,
251317,235641,
251362,235702,
251251,235622,
251322,235654,
251227,235601,
251317,235661,
251221,235597,
251343,235662,
251265,235611,
251392,235672,
251334,235632,
251469,235713,
251438,235694,
251561,235758,
251552,235726,
251705,235821,
251657,235795,
251800,235853,
251787,235844,
251894,235918,
251898,235876,
252018,235952,
251994,235925,
252099,235984,
252080,235947,
252190,236034,
252152,235983,
252232,236034,
252227,236011,
252289,236049,
252265,236024,
252336,236080,
252312,236034,
252372,236083,
252334,236041,
252381,236080,
252357,236076,
252422,236106,
252411,236081,
252530,236146,
252522,236127,
252634,236194,
252653,236179,
252779,236261,
252806,236258,
252932,236335,
252964,236321,
253085,236384,
253044,236369,
253038,236333,
252740,236186,
252361,236008,
251790,235736,
251397,235574,
250985,235396,
250775,235291,
250570,235204,
250538,235195,
250442,235145,
250503,235193,
250510,235187,
250625,235247,
250671,235253,
250812,235339,
250852,235354,
250949,235397,
250958,235404,
251035,235442,
250994,235419,
251041,235430,
250957,235412,
250982,235398,
250915,235398,
250970,235405,
250938,235409,
251067,235455,
251075,235465,
251177,235512,
251168,235527,
251258,235532,
251219,235538,
251248,235518,
251178,235513,
251217,235498,
251121,235476,
251149,235476,
251078,235463,
251125,235462,
251094,235464,
251154,235485,
251145,235488,
251229,235497,
251218,235510,
251334,235555,
251368,235590,
251460,235609,
251507,235636,
251600,235672,
251633,235698,
251739,235733,
251772,235752,
251857,235780,
251907,235814,
251986,235839,
252022,235852,
252078,235883,
252135,235910,
252219,235929,
252241,235960,
252306,235979,
252332,236014,
252391,236002,
252409,236030,
252441,236031,
252459,236060,
252498,236040,
252519,236074,
252565,236066,
252593,236095,
252647,236124,
252717,236173,
252789,236171,
252888,236248,
252990,236244,
253056,236320,
253163,236325,
253228,236409,
253291,236395,
253293,236424,
253170,236328,
252895,236216,
252394,235941,
251820,235707,
251319,235484,
250966,235354,
250721,235209,
250578,235164,
250511,235115,
250515,235158,
250557,235136,
250601,235205,
250690,235211,
250787,235306,
250887,235312,
250965,235392,
251032,235365,
251075,235450,
251104,235415,
251119,235479,
251075,235399,
251089,235457,
251046,235379,
251073,235431,
251075,235389,
251161,235489,
251205,235456,
251314,235558,
251373,235527,
251451,235615,
251458,235569,
251503,235651,
251485,235580,
251473,235637,
251443,235561,
251454,235608,
251413,235531,
251418,235603,
251393,235550,
251432,235608,
251446,235569,
251507,235635,
251524,235597,
251609,235690,
251662,235655,
251752,235756,
251781,235706,
251913,235811,
251958,235768,
252036,235867,
252067,235830,
252167,235914,
252174,235879,
252271,235963,
252257,235907,
252368,235996,
252369,235945,
252466,236036,
252445,235992,
252536,236068,
252545,236019,
252619,236109,
252587,236046,
252679,236129,
252642,236063,
252733,236162,
252698,236095,
252788,236178,
252760,236106,
252868,236207,
252833,236125,
252930,236256,
252935,236193,
253078,236298,
253074,236252,
253225,236365,
253246,236314,
253391,236447,
253398,236391,
253530,236501,
253484,236420,
253457,236451,
253143,236203,
252729,236086,
252052,235720,
251552,235564,
251038,235320,
250796,235252,
250533,235097,
250501,235110,
250414,235040,
250486,235125,
250477,235061,
250618,235178,
250649,235148,
250786,235260,
250784,235220,
250908,235319,
250873,235246,
250984,235356,
250906,235269,
250971,235336,
250867,235280,
250919,235325,
250846,235234,
250915,235334,
250898,235286,
251039,235391,
251025,235336,
251183,235455,
251168,235423,
251318,235500,
251263,235435,
251349,235521,
251255,235439,
251339,235519,
251233,235425,
251294,235494,
251206,235415,
251303,235500,
251214,235423,
251347,235535,
251285,235449,
251409,235559,
251391,235506,
251543,235618,
251556,235566,
251715,235674,
251708,235640,
251890,235759,
251902,235723,
252053,235840,
252074,235811,
252242,235909,
252248,235883,
252393,235979,
252394,235932,
252571,236053,
252555,236018,
252675,236109,
252666,236045,
252796,236138,
252768,236084,
252880,236177,
252828,236106,
252968,236228,
252913,236144,
253048,236244,
253013,236186,
253129,236281,
253052,236202,
253181,236306,
253144,236240,
253295,236356,
253262,236283,
253407,236413,
253384,236349,
253549,236473,
253513,236406,
253684,236542,
253647,236458,
253816,236574,
253754,236498,
253811,236573,
253554,236392,
253290,236309,
252634,235919,
252008,235696,
251262,235364,
250926,235252,
250552,235019,
250451,235041,
250269,234915,
250324,234988,
250270,234907,
250406,235020,
250389,234983,
250547,235091,
250554,235054,
250703,235154,
250685,235117,
250807,235224,
250708,235132,
250810,235200,
250695,235114,
250742,235175,
250642,235082,
250708,235156,
250629,235110,
250778,235174,
250740,235143,
250915,235241,
250880,235210,
251036,235301,
250977,235260,
251115,235335,
251021,235287,
251105,235345,
251019,235264,
251089,235317,
250956,235248,
251049,235305,
250956,235244,
251046,235315,
250982,235242,
251112,235315,
251057,235274,
251201,235345,
251166,235312,
251331,235422,
251327,235414,
251486,235488,
251467,235471,
251651,235550,
251627,235535,
251801,235612,
251802,235584,
251959,235682,
251948,235662,
252095,235741,
252084,235727,
252238,235803,
252224,235798,
252391,235880,
252366,235843,
252494,235932,
252494,235891,
252621,235949,
252583,235927,
252717,236003,
252690,235994,
252814,236048,
252814,236029,
252926,236086,
252900,236068,
253031,236135,
253014,236124,
253125,236166,
253128,236165,
253250,236231,
253259,236224,
253384,236304,
253413,236289,
253550,236372,
253576,236364,
253703,236443,
253706,236421,
253805,236496,
253751,236443,
253679,236391,
253275,236180,
252745,235950,
251972,235562,
251355,235332,
250815,235098,
250546,234982,
250312,234866,
250296,234871,
250227,234828,
250281,234869,
250285,234897,
250427,234960,
250479,234977,
250633,235055,
250649,235057,
250756,235113,
250735,235102,
250811,235129,
250757,235097,
250777,235104,
250717,235086,
250760,235092,
250678,235069,
250770,235094,
250758,235106,
250878,235144,
250897,235178,
251028,235221,
251045,235250,
251157,235269,
251145,235288,
251210,235289,
251148,235274,
251166,235279,
251098,235263,
251119,235258,
251066,235245,
251126,235242,
251090,235235,
251148,235259,
251134,235264,
251227,235290,
251249,235302,
251374,235354,
251398,235376,
251514,235423,
251584,235462,
251696,235495,
251758,235543,
251873,235569,
251911,235615,
252027,235641,
252069,235679,
252157,235690,
252223,235731,
252296,235757,
252322,235770,
252413,235787,
252440,235828,
252509,235838,
252545,235881,
252629,235882,
252648,235930,
252714,235930,
252745,235955,
252811,235966,
252856,236000,
252898,236005,
252937,236059,
253017,236033,
253023,236093,
253071,236087,
253125,236126,
253205,236131,
253256,236179,
253320,236184,
253389,236233,
253459,236235,
253542,236300,
253616,236311,
253670,236367,
253746,236357,
253761,236414,
253715,236340,
253521,236269,
253107,236015,
252432,235722,
251676,235367,
251047,235144,
250616,234912,
250371,234830,
250201,234727,
250149,234753,
250146,234710,
250193,234779,
250224,234759,
250327,234857,
250415,234840,
250531,234932,
250603,234940,
250691,235015,
250728,234979,
250766,235048,
250752,234994,
250760,235051,
250746,234982,
250741,235032,
250729,234990,
250785,235083,
250838,235057,
250989,235160,
251026,235112,
251184,235246,
251247,235238,
251344,235317,
251354,235250,
251399,235312,
251345,235239,
251353,235299,
251316,235226,
251316,235280,
251278,235217,
251316,235271,
251299,235217,
251384,235322,
251397,235277,
251497,235370,
251546,235342,
251703,235451,
251750,235432,
251905,235546,
251954,235518,
252140,235649,
252185,235623,
252323,235731,
252390,235705,
252537,235812,
252552,235784,
252707,235880,
252737,235843,
252882,235956,
252858,235893,
253003,235995,
252979,235953,
253113,236058,
253094,235989,
253246,236106,
253200,236045,
253335,236147,
253310,236094,
253421,236189,
253393,236121,
253492,236221,
253477,236162,
253584,236262,
253560,236185,
253670,236284,
253635,236219,
253755,236327,
253746,236278,
253849,236365,
253839,236313,
253960,236416,
253929,236346,
254041,236459,
254051,236415,
254187,236517,
254167,236458,
254298,236569,
254279,236525,
254378,236612,
254252,236506,
254161,236474,
253642,236192,
253027,235886,
252103,235434,
251373,235201,
250758,234901,
250519,234831,
250247,234686,
250259,234734,
250172,234660,
250291,234773,
250292,234724,
250475,234836,
250481,234819,
250683,234946,
250694,234903,
250859,235007,
250816,234958,
250914,235068,
250842,234983,
250931,235053,
250837,234963,
250912,235057,
250862,234982,
250975,235092,
250955,235015,
251128,235148,
251116,235098,
251300,235213,
251286,235144,
251401,235252,
251318,235156,
251370,235213,
251258,235136,
251293,235197,
251173,235096,
251237,235178,
251145,235086,
251210,235166,
251152,235072,
251259,235182,
251209,235096,
251329,235236,
251347,235176,
251544,235322,
251542,235266,
251727,235393,
251743,235345,
251931,235469,
251920,235415,
252097,235555,
252099,235497,
252292,235638,
252279,235574,
252454,235705,
252431,235635,
252603,235760,
252593,235708,
252734,235827,
252720,235764,
252871,235891,
252860,235812,
252979,235931,
252976,235866,
253112,235985,
253089,235933,
253234,236048,
253216,235978,
253377,236105,
253341,236032,
253505,236153,
253448,236088,
253593,236186,
253548,236135,
253689,236241,
253643,236174,
253794,236271,
253769,236215,
253893,236319,
253864,236267,
254033,236375,
253991,236325,
254135,236417,
254106,236384,
254226,236478,
254179,236430,
254255,236477,
254029,236316,
253781,236207,
253099,235863,
252388,235554,
251526,235167,
251051,234983,
250554,234773,
250431,234723,
250242,234627,
250313,234680,
250243,234645,
250411,234751,
250417,234733,
250648,234845,
250669,234858,
250888,234989,
250937,234967,
251120,235056,
251109,235043,
251228,235118,
251177,235069,
251264,235119,
251183,235068,
251258,235133,
251203,235085,
251371,235152,
251367,235169,
251542,235250,
251537,235231,
251665,235290,
251652,235269,
251723,235339,
251666,235267,
251694,235310,
251596,235228,
251627,235246,
251522,235200,
251565,235242,
251499,235211,
251575,235242,
251543,235234,
251675,235287,
251675,235277,
251805,235345,
251828,235345,
251985,235423,
252036,235433,
252205,235524,
252254,235530,
252412,235617,
252467,235620,
252596,235703,
252652,235698,
252812,235776,
252856,235783,
252992,235851,
253028,235860,
253164,235919,
253169,235924,
253299,235992,
253287,235968,
253416,236041,
253432,236037,
253543,236090,
253548,236092,
253658,236163,
253656,236156,
253761,236180,
253768,236193,
253879,236253,
253886,236244,
253989,236279,
253986,236300,
254093,236336,
254079,236347,
254199,236382,
254186,236394,
254283,236430,
254298,236436,
254412,236483,
254415,236496,
254525,236512,
254528,236555,
254634,236587,
254655,236602,
254760,236654,
254762,236670,
254836,236687,
254815,236684,
254815,236651,
254568,236532,
254143,236334,
253385,235963,
252594,235572,
251793,235233,
251238,235029,
250885,234890,
250766,234836,
250641,234810,
250701,234811,
250745,234845,
250881,234891,
250961,234971,
251159,235022,
251264,235096,
251444,235160,
251557,235217,
251692,235265,
251750,235319,
251826,235323,
251834,235340,
251876,235342,
251890,235357,
251929,235390,
252019,235420,
252124,235465,
252251,235517,
252347,235545,
252404,235582,
252478,235606,
252476,235639,
252477,235579,
252411,235602,
252368,235535,
252322,235540,
252272,235492,
252207,235487,
252195,235449,
252168,235477,
252203,235450,
252246,235519,
252317,235523,
252397,235573,
252516,235609,
252604,235665,
252722,235689,
252822,235780,
252931,235783,
253053,235871,
253164,235879,
253262,235948,
253349,235962,
253427,236031,
253506,236034,
253548,236100,
253631,236074,
253677,236154,
253725,236105,
253789,236181,
253805,236160,
253891,236226,
253886,236191,
253945,236262,
253968,236212,
254022,236294,
254017,236261,
254084,236330,
254093,236280,
254166,236366,
254181,236317,
254254,236409,
254265,236353,
254316,236436,
254314,236377,
254387,236477,
254417,236422,
254482,236510,
254490,236467,
254546,236528,
254558,236485,
254635,236550,
254623,236521,
254715,236590,
254733,236558,
254817,236653,
254834,236593,
254918,236688,
254925,236629,
254977,236705,
254845,236589,
254679,236547,
254173,236228,
253502,235964,
252648,235517,
251966,235279,
251337,234980,
251056,234922,
250836,234780,
250795,234804,
250732,234776,
250873,234882,
250905,234849,
251127,234980,
251195,234959,
251416,235125,
251495,235097,
251688,235243,
251722,235180,
251866,235306,
251843,235247,
251943,235330,
251882,235264,
251989,235346,
251963,235285,
252071,235395,
252068,235336,
252209,235435,
252218,235381,
252322,235479,
252273,235399,
252345,235493,
252256,235377,
252269,235444,
252150,235320,
252148,235392,
252042,235295,
252084,235354,
251978,235271,
252055,235352,
252015,235285,
252147,235375,
252122,235330,
252287,235432,
252314,235402,
252470,235529,
252490,235504,
252697,235620,
252707,235595,
252899,235715,
252905,235670,
253070,235785,
253056,235738,
253213,235867,
253204,235820,
253349,235915,
253315,235852,
253445,235954,
253396,235882,
253521,235994,
253458,235899,
253596,236027,
253537,235939,
253642,236044,
253598,235960,
253700,236044,
253652,235984,
253777,236085,
253762,236045,
253885,236129,
253828,236066,
253964,236158,
253932,236101,
254073,236203,
254030,236136,
254163,236245,
254151,236182,
254256,236300,
254243,236221,
254352,236341,
254345,236285,
254446,236386,
254396,236302,
254527,236421,
254501,236340,
254631,236455,
254581,236389,
254721,236477,
254659,236424,
254811,236510,
254774,236455,
254902,236560,
254845,236510,
254991,236621,
254932,236540,
255012,236604,
254809,236453,
254603,236392,
253936,236016,
253255,235734,
252344,235272,
251681,235053,
251075,234752,
250881,234736,
250616,234561,
250643,234646,
250543,234544,
250690,234683,
250694,234619,
250883,234762,
250925,234742,
251148,234881,
251195,234862,
251387,235000,
251436,234966,
251590,235065,
251553,234988,
251667,235088,
251591,234984,
251649,235084,
251562,234995,
251665,235079,
251632,235030,
251788,235128,
251761,235096,
251911,235198,
251865,235135,
251991,235198,
251897,235163,
251968,235193,
251865,235134,
251916,235184,
251794,235091,
251838,235148,
251760,235083,
251854,235145,
251759,235092,
251885,235175,
251853,235121,
252017,235226,
252000,235182,
252175,235286,
252171,235265,
252364,235370,
252379,235362,
252566,235445,
252556,235437,
252738,235521,
252734,235504,
252868,235583,
252854,235562,
252989,235629,
252951,235614,
253111,235673,
253061,235649,
253204,235718,
253157,235680,
253278,235738,
253226,235725,
253343,235770,
253286,235761,
253399,235797,
253388,235788,
253494,235848,
253463,235811,
253566,235878,
253561,235861,
253687,235917,
253652,235911,
253767,235969,
253769,235936,
253902,236021,
253874,235992,
253986,236053,
253972,236045,
254091,236092,
254054,236064,
254163,236128,
254130,236104,
254241,236173,
254220,236139,
254332,236199,
254298,236170,
254397,236233,
254391,236199,
254468,236264,
254452,236238,
254553,236299,
254565,236275,
254640,236347,
254654,236338,
254788,236393,
254754,236380,
254855,236450,
254812,236399,
254827,236396,
254542,236252,
254104,236036,
253344,235666,
252584,235319,
251755,234966,
251221,234759,
250827,234599,
250670,234533,
250519,234467,
250533,234485,
250521,234495,
250668,234545,
250712,234597,
250880,234655,
250974,234696,
251166,234781,
251264,234814,
251422,234886,
251432,234925,
251522,234940,
251511,234944,
251567,234941,
251521,234925,
251536,234936,
251511,234951,
251599,234954,
251585,234986,
251685,234987,
251677,235011,
251767,235031,
251742,235034,
251790,235050,
251752,235027,
251784,235039,
251717,235019,
251728,235004,
251666,234980,
251699,234989,
251656,234978,
251719,234989,
251711,235028,
251791,235032,
251826,235063,
251925,235083,
251999,235112,
252123,235158,
252196,235220,
252333,235258,
252389,235310,
252532,235353,
252633,235406,
252764,235456,
252845,235510,
252925,235512,
252974,235569,
253054,235572,
253070,235615,
253131,235611,
253173,235654,
253213,235664,
253230,235676,
253276,235663,
253273,235693,
253320,235674,
253332,235722,
253357,235705,
253360,235727,
253408,235704,
253419,235762,
253464,235739,
253490,235784,
253516,235755,
253549,235810,
253596,235787,
253638,235841,
253668,235827,
253719,235873,
253760,235869,
253788,235917,
253853,235909,
253901,235972,
253950,235934,
253984,235985,
254015,235979,
254062,236021,
254098,235996,
254124,236067,
254180,236034,
254216,236095,
254246,236064,
254287,236149,
254319,236096,
254382,236175,
254407,236133,
254469,236223,
254502,236191,
254571,236273,
254578,236197,
254574,236256,
254401,236119,
254072,235986,
253470,235642,
252750,235353,
251924,234948,
251295,234748,
250865,234516,
250649,234486,
250459,234332,
250432,234387,
250410,234306,
250485,234412,
250544,234390,
250670,234512,
250783,234504,
250946,234624,
251040,234627,
251179,234736,
251251,234708,
251356,234799,
251343,234732,
251371,234798,
251309,234719,
251366,234795,
251312,234725,
251355,234809,
251343,234737,
251441,234835,
251440,234781,
251517,234861,
251521,234803,
251576,234887,
251510,234797,
251559,234863,
251470,234759,
251505,234855,
251431,234773,
251464,234833,
251386,234738,
251457,234818,
251395,234759,
251498,234848,
251482,234795,
251588,234888,
251587,234840,
251746,234952,
251760,234918,
251921,235034,
251948,234994,
252115,235118,
252118,235065,
252289,235184,
252307,235146,
252446,235257,
252448,235196,
252553,235297,
252544,235243,
252655,235342,
252601,235268,
252729,235375,
252665,235287,
252766,235385,
252721,235312,
252815,235386,
252777,235334,
252871,235430,
252830,235360,
252910,235455,
252864,235387,
252977,235478,
252941,235433,
253048,235525,
253003,235448,
253138,235545,
253112,235476,
253239,235607,
253197,235529,
253321,235620,
253267,235568,
253418,235686,
253386,235592,
253511,235712,
253478,235661,
253617,235761,
253565,235699,
253712,235799,
253660,235717,
253793,235845,
253753,235774,
253870,235873,
253847,235801,
253989,235935,
253936,235845,
254078,235956,
254056,235882,
254163,235990,
254114,235928,
254169,235992,
253987,235866,
253778,235783,
253186,235451,
252571,235190,
251759,234776,
251188,234611,
250721,234351,
250530,234317,
250283,234170,
250305,234223,
250221,234150,
250354,234268,
250348,234212,
250555,234357,
250595,234342,
250811,234473,
250863,234459,
251064,234581,
251094,234549,
251242,234676,
251235,234612,
251326,234709,
251268,234612,
251365,234713,
251267,234610,
251410,234738,
251352,234647,
251513,234764,
251466,234699,
251588,234808,
251521,234719,
251610,234817,
251554,234722,
251590,234807,
251506,234709,
251540,234783,
251435,234665,
251492,234751,
251416,234656,
251474,234766,
251437,234676,
251564,234772,
251520,234715,
251672,234828,
251668,234772,
251831,234890,
251851,234856,
252049,234981,
252065,234945,
252263,235057,
252266,235030,
252447,235160,
252456,235123,
252605,235242,
252582,235189,
252744,235276,
252696,235243,
252847,235328,
252822,235294,
252957,235386,
252911,235318,
253050,235422,
252991,235378,
253138,235474,
253082,235414,
253228,235505,
253190,235443,
253332,235540,
253276,235510,
253451,235594,
253416,235547,
253545,235638,
253508,235613,
253665,235685,
253625,235659,
253761,235738,
253733,235706,
253875,235798,
253884,235762,
254024,235840,
253999,235839,
254166,235926,
254125,235881,
254278,235959,
254241,235923,
254365,236010,
254353,235975,
254482,236036,
254431,236014,
254566,236094,
254544,236051,
254667,236127,
254633,236101,
254759,236176,
254741,236161,
254879,236228,
254849,236209,
254959,236276,
254890,236223,
254920,236240,
254689,236097,
254354,235961,
253684,235601,
252978,235292,
252147,234884,
251550,234662,
251020,234428,
250851,234392,
250695,234325,
250806,234391,
250815,234392,
250973,234488,
251080,234520,
251303,234633,
251410,234686,
251659,234804,
251763,234827,
251954,234938,
252011,234953,
252126,234987,
252079,234953,
252126,235004,
252079,234963,
252125,234995,
252106,234964,
252214,235019,
252217,235010,
252322,235064,
252310,235067,
252390,235124,
252385,235094,
252443,235121,
252386,235086,
252423,235104,
252343,235074,
252360,235080,
252291,235043,
252361,235088,
252324,235061,
252397,235102,
252390,235110,
252493,235137,
252543,235152,
252653,235212,
252679,235236,
252824,235300,
252878,235310,
253029,235388,
253052,235397,
253172,235449,
253209,235485,
253309,235499,
253318,235553,
253432,235552,
253422,235587,
253511,235594,
253485,235599,
253545,235608,
253554,235634,
253617,235625,
253609,235642,
253661,235675,
253656,235670,
253724,235687,
253705,235694,
253779,235708,
253783,235722,
253818,235746,
253828,235737,
253905,235769,
253913,235772,
253968,235788,
253982,235798,
254034,235815,
254059,235831,
254116,235840,
254148,235876,
254214,235879,
254232,235908,
254303,235938,
254320,235971,
254395,235969,
254411,236008,
254461,236002,
254492,236029,
254547,236048,
254587,236073,
254639,236090,
254701,236118,
254763,236134,
254804,236174,
254851,236165,
254854,236211,
254829,236164,
254718,236115,
254421,235938,
253884,235699,
253189,235304,
252400,234991,
251679,234659,
251169,234480,
250863,234334,
250731,234317,
250684,234267,
250711,234309,
250770,234341,
250880,234425,
251039,234470,
251186,234563,
251336,234602,
251502,234702,
251606,234706,
251706,234793,
251778,234772,
251801,234804,
251794,234777,
251801,234801,
251773,234771,
251789,234808,
251801,234768,
251858,234839,
251896,234814,
251954,234887,
251964,234851,
251993,234893,
251978,234853,
251968,234899,
251920,234814,
251887,234859,
251846,234788,
251837,234813,
251793,234755,
251803,234810,
251794,234758,
251857,234834,
251871,234796,
251953,234884,
251987,234855,
252098,234944,
252169,234915,
252239,235016,
252316,234982,
252405,235086,
252457,235032,
252570,235135,
252599,235097,
252685,235177,
252696,235139,
252795,235226,
252790,235186,
252882,235270,
252889,235229,
252948,235312,
252947,235237,
253021,235333,
253009,235259,
253067,235327,
253066,235295,
253112,235353,
253109,235313,
253183,235398,
253161,235337,
253250,235410,
253221,235372,
253314,235460,
253293,235395,
253383,235485,
253389,235425,
253467,235522,
253449,235455,
253551,235540,
253522,235485,
253610,235592,
253577,235519,
253673,235605,
253658,235551,
253749,235640,
253731,235570,
253821,235664,
253797,235602,
253917,235710,
253899,235628,
254012,235751,
254000,235683,
254090,235784,
254051,235710,
254052,235772,
253796,235574,
253487,235441,
252874,235099,
252255,234866,
251536,234502,
251033,234356,
250631,234145,
250502,234133,
250279,233982,
250324,234070,
250293,233989,
250436,234117,
250469,234095,
250646,234241,
250689,234208,
250914,234343,
250947,234329,
251112,234431,
251113,234387,
251244,234480,
251176,234385,
251233,234484,
251146,234383,
251191,234463,
251108,234375,
251198,234476,
251170,234411,
251303,234523,
251264,234457,
251376,234551,
251308,234452,
251408,234549,
251304,234451,
251353,234534,
251254,234433,
251315,234493,
251199,234397,
251256,234484,
251215,234410,
251318,234500,
251252,234447,
251383,234552,
251371,234480,
251526,234606,
251522,234532,
251685,234657,
251712,234616,
251862,234742,
251871,234706,
252043,234814,
252030,234763,
252188,234881,
252184,234833,
252339,234943,
252334,234891,
252445,234999,
252411,234927,
252519,235013,
252480,234945,
252612,235059,
252566,234981,
252702,235089,
252663,235034,
252797,235129,
252750,235077,
252891,235184,
252849,235116,
252985,235221,
252950,235146,
253072,235268,
253026,235181,
253173,235305,
253130,235233,
253271,235343,
253223,235283,
253360,235395,
253342,235338,
253475,235432,
253426,235371,
253530,235479,
253507,235397,
253636,235516,
253609,235433,
253731,235568,
253704,235481,
253847,235586,
253811,235534,
253952,235659,
253914,235589,
254055,235688,
254006,235618,
254084,235684,
253856,235542,
253634,235445,
253055,235123,
252506,234878,
251709,234491,
251192,234303,
250660,234065,
250477,234045,
250317,233924,
250313,233991,
250275,233921,
250425,234052,
250439,234023,
250660,234172,
250702,234165,
250933,234284,
250964,234271,
251147,234400,
251148,234350,
251273,234431,
251198,234369,
251274,234424,
251163,234349,
251257,234410,
251154,234338,
251276,234435,
251233,234395,
251361,234477,
251316,234429,
251442,234508,
251364,234437,
251445,234491,
251346,234433,
251416,234473,
251287,234415,
251355,234439,
251237,234370,
251328,234435,
251227,234366,
251325,234428,
251260,234377,
251381,234467,
251332,234430,
251489,234493,
251469,234473,
251609,234566,
251589,234532,
251762,234614,
251730,234587,
251871,234682,
251865,234641,
251990,234726,
251979,234681,
252098,234763,
252082,234749,
252219,234809,
252183,234794,
252302,234849,
252264,234828,
252374,234889,
252370,234875,
252466,234922,
252418,234901,
252522,234957,
252485,234915,
252592,234986,
252552,234950,
252660,235004,
252643,234978,
252735,235029,
252714,235032,
252815,235084,
252804,235047,
252904,235098,
252879,235085,
252981,235148,
252948,235128,
253046,235167,
253004,235163,
253119,235204,
253097,235189,
253192,235243,
253177,235236,
253297,235299,
253307,235279,
253426,235340,
253422,235343,
253540,235387,
253561,235384,
253659,235441,
253623,235414,
253617,235426,
253356,235281,
253041,235120,
252439,234805,
251857,234552,
251194,234258,
250763,234102,
250425,233936,
250309,233902,
250170,233832,
250203,233856,
250202,233874,
250344,233944,
250396,233957,
250583,234053,
250653,234087,
250833,234179,
250888,234198,
251028,234251,
251039,234253,
251117,234284,
251064,234270,
251087,234279,
251022,234257,
251069,234257,
251036,234271,
251119,234299,
251116,234298,
251207,234323,
251233,234358,
251273,234362,
251238,234340,
251314,234351,
251239,234348,
251276,234355,
251199,234325,
251231,234334,
251189,234320,
251231,234328,
251204,234322,
251284,234345,
251268,234358,
251347,234372,
251366,234394,
251471,234441,
251501,234455,
251610,234505,
251654,234534,
251769,234577,
251829,234591,
251910,234635,
251941,234665,
252033,234686,
252060,234724,
252175,234751,
252204,234767,
252269,234785,
252288,234809,
252370,234809,
252383,234840,
252451,234863,
252481,234906,
252570,234902,
252575,234937,
252637,234937,
252661,234978,
252701,234987,
252746,235011,
252792,235014,
252825,235056,
252875,235036,
252926,235095,
252976,235082,
253012,235136,
253057,235129,
253114,235179,
253141,235155,
253175,235212,
253220,235193,
253261,235247,
253311,235225,
253340,235281,
253396,235273,
253454,235341,
253512,235328,
253568,235394,
253650,235387,
253714,235456,
253777,235446,
253829,235523,
253857,235498,
253813,235494,
253647,235353,
253297,235212,
252748,234902,
252072,234633,
251441,234321,
250897,234129,
250571,233976,
250415,233955,
250298,233849,
250274,233899,
250319,233875,
250416,233967,
250535,233994,
250664,234083,
250785,234111,
250937,234221,
251035,234230,
251147,234309,
251222,234298,
251269,234386,
251284,234325,
251275,234372,
251261,234317,
251250,234371,
251268,234319,
251316,234407,
251372,234357,
251476,234472,
251499,234433,
251578,234504,
251570,234449,
251591,234516,
251549,234441,
251556,234512,
251508,234436,
251520,234479,
251500,234424,
251537,234475,
251526,234446,
251607,234509,
251611,234480,
251703,234566,
251727,234533,
251850,234634,
251933,234614,
252040,234724,
252118,234694,
252261,234821,
252326,234790,
252483,234910,
252545,234902,
252697,235013,
252762,234987,
252909,235111,
252954,235093,
253095,235210,
253118,235179,
253248,235271,
253273,235232,
253399,235344,
253397,235302,
253514,235390,
253522,235364,
253669,235457,
253660,235418,
253770,235504,
253749,235461,
253830,235555,
253824,235500,
253940,235606,
253914,235513,
254043,235636,
254036,235585,
254173,235697,
254155,235645,
254295,235766,
254330,235727,
254463,235841,
254465,235799,
254612,235911,
254622,235858,
254757,235971,
254710,235915,
254723,235959,
254481,235762,
254151,235670,
253515,235289,
252951,235055,
252214,234698,
251755,234570,
251304,234336,
251163,234335,
251052,234243,
251139,234335,
251144,234327,
251367,234447,
251457,234451,
251715,234612,
251809,234632,
252053,234795,
252113,234772,
252308,234881,
252320,234862,
252450,234950,
252406,234897,
252519,234986,
252486,234932,
252610,235042,
252612,234992,
252761,235109,
252771,235077,
252901,235182,
252858,235097,
252952,235181,
252873,235107,
252944,235167,
252788,235068,
252824,235110,
252675,235011,
252712,235050,
252587,234958,
252662,235035,
252585,234951,
252710,235088,
252672,235018,
252823,235119,
252817,235080,
252968,235196,
252979,235157,
253128,235257,
253153,235237,
253323,235353,
253331,235317,
253481,235416,
253511,235385,
253661,235503,
253638,235468,
253816,235590,
253794,235517,
253934,235627,
253901,235571,
254027,235688,
254018,235630,
254121,235708,
254092,235658,
254212,235773,
254177,235707,
254267,235790,
254257,235737,
254369,235853,
254311,235772,
254456,235869,
254442,235820,
254583,235935,
254592,235876,
254731,236016,
254722,235951,
254867,236060,
254840,236021,
254983,236144,
254910,236055,
254982,236127,
254756,235949,
254501,235886,
253927,235536,
253401,235318,
252663,234940,
252207,234802,
251729,234551,
251537,234549,
251348,234426,
251446,234518,
251459,234474,
251661,234646,
251734,234612,
251999,234787,
252110,234786,
252339,234968,
252412,234928,
252593,235064,
252572,235001,
252707,235121,
252661,235032,
252743,235123,
252653,235050,
252746,235140,
252712,235078,
252866,235174,
252850,235130,
252994,235221,
252954,235173,
253087,235244,
252987,235189,
253055,235252,
252952,235162,
252991,235224,
252882,235122,
252910,235188,
252825,235107,
252886,235163,
252811,235091,
252923,235190,
252877,235138,
253036,235234,
252996,235180,
253144,235298,
253133,235266,
253298,235357,
253291,235337,
253472,235434,
253448,235427,
253631,235510,
253607,235490,
253760,235569,
253722,235526,
253862,235614,
253845,235573,
253959,235656,
253909,235616,
254055,235699,
254001,235656,
254128,235721,
254054,235683,
254159,235746,
254072,235695,
254179,235754,
254098,235715,
254204,235767,
254158,235746,
254284,235819,
254239,235778,
254373,235849,
254338,235808,
254452,235891,
254465,235863,
254594,235927,
254549,235906,
254613,235945,
254455,235847,
254236,235740,
253702,235455,
253171,235205,
252431,234860,
251919,234668,
251420,234431,
251207,234388,
251009,234297,
251041,234342,
250979,234311,
251128,234388,
251175,234395,
251365,234495,
251426,234507,
251629,234620,
251690,234622,
251846,234705,
251840,234694,
251902,234737,
251855,234713,
251903,234734,
251816,234674,
251873,234716,
251863,234682,
251953,234775,
251985,234760,
252119,234845,
252146,234828,
252271,234903,
252272,234892,
252326,234943,
252287,234893,
252314,234910,
252236,234874,
252262,234879,
252205,234852,
252264,234885,
252241,234851,
252282,234901,
252278,234890,
252377,234952,
252384,234945,
252501,235011,
252533,235021,
252699,235092,
252729,235107,
252880,235171,
252913,235197,
253049,235241,
253078,235269,
253209,235316,
253238,235329,
253342,235394,
253360,235386,
253452,235435,
253435,235435,
253548,235476,
253528,235476,
253598,235487,
253575,235490,
253657,235514,
253630,235510,
253698,235548,
253665,235535,
253764,235570,
253764,235588,
253846,235595,
253855,235618,
253990,235657,
254002,235704,
254133,235738,
254148,235766,
254292,235788,
254327,235825,
254385,235853,
254329,235828,
254229,235758,
253860,235596,
253391,235336,
252729,235033,
252135,234773,
251562,234523,
251225,234399,
250993,234309,
250928,234297,
250892,234283,
250939,234298,
250981,234358,
251140,234411,
251228,234465,
251402,234522,
251507,234585,
251639,234638,
251716,234695,
251777,234688,
251784,234705,
251811,234701,
251790,234703,
251819,234693,
251823,234722,
251857,234712,
251955,234781,
252048,234811,
252155,234864,
252245,234884,
252289,234937,
252359,234951,
252371,234964,
252385,234958,
252355,234966,
252335,234926,
252311,234930,
252307,234920,
252287,234910,
252325,234928,
252341,234956,
252397,234949,
252464,235004,
252553,235015,
252629,235091,
252740,235115,
252840,235191,
252994,235230,
253089,235299,
253207,235310,
253298,235386,
253388,235407,
253459,235472,
253569,235478,
253618,235539,
253684,235546,
253750,235583,
253832,235612,
253881,235658,
253915,235644,
253960,235704,
253994,235675,
254040,235727,
254064,235706,
254085,235758,
254113,235721,
254149,235770,
254176,235748,
254204,235797,
254250,235768,
254301,235848,
254345,235827,
254415,235921,
254480,235883,
254558,235964,
254599,235961,
254676,236028,
254694,235993,
254737,236035,
254611,235914,
254340,235842,
253827,235532,
253219,235283,
252489,234899,
251900,234706,
251382,234452,
251132,234413,
250980,234284,
250975,234344,
250958,234304,
251060,234399,
251155,234390,
251312,234524,
251444,234519,
251592,234651,
251667,234651,
251794,234739,
251828,234697,
251879,234779,
251861,234698,
251876,234768,
251843,234704,
251880,234776,
251897,234735,
252010,234845,
252084,234811,
252224,234945,
252284,234919,
252420,235015,
252449,234984,
252529,235062,
252471,234996,
252518,235056,
252460,234980,
252490,235056,
252417,234953,
252479,235040,
252438,234978,
252538,235056,
252529,235029,
252643,235119,
252685,235074,
252851,235217,
252877,235182,
253063,235304,
253116,235281,
253285,235424,
253320,235397,
253504,235507,
253517,235464,
253668,235597,
253655,235542,
253795,235641,
253804,235587,
253917,235698,
253896,235637,
254021,235737,
253988,235669,
254088,235765,
254058,235704,
254152,235789,
254129,235703,
254189,235822,
254166,235742,
254238,235813,
254207,235756,
254274,235850,
254244,235784,
254343,235884,
254320,235822,
254440,235925,
254412,235868,
254560,235980,
254545,235935,
254703,236046,
254703,235999,
254844,236095,
254811,236058,
254937,236144,
254860,236059,
254854,236087,
254508,235895,
254062,235705,
253312,235291,
252637,235031,
251916,234665,
251491,234554,
251119,234361,
251065,234365,
250906,234289,
251010,234374,
250992,234348,
251150,234459,
251199,234442,
251395,234564,
251402,234547,
251619,234663,
251593,234606,
251738,234724,
251676,234632,
251776,234753,
251681,234636,
251767,234724,
251716,234658,
251867,234781,
251861,234731,
252075,234870,
252090,234837,
252275,234981,
252250,234908,
252404,235007,
252332,234949,
252422,235014,
252296,234942,
252374,234995,
252265,234908,
252315,234974,
252230,234881,
252338,234974,
252265,234915,
252403,235019,
252387,234957,
252545,235056,
252563,235041,
252754,235174,
252787,235142,
252991,235268,
253044,235240,
253224,235380,
253237,235357,
253430,235481,
253446,235431,
253607,235556,
253604,235506,
253772,235633,
253760,235590,
253917,235681,
253881,235625,
254023,235744,
253993,235679,
254139,235781,
254106,235728,
254222,235833,
254162,235744,
254275,235847,
254216,235794,
254346,235875,
254277,235802,
254428,235938,
254402,235876,
254557,235988,
254534,235917,
254701,236078,
254705,236013,
254863,236134,
254848,236080,
254996,236203,
255014,236133,
255155,236270,
255112,236187,
255194,236292,
255044,236144,
254885,236130,
254357,235820,
253759,235569,
252972,235126,
252373,234935,
251806,234640,
251518,234589,
251280,234453,
251337,234526,
251283,234466,
251458,234585,
251482,234564,
251700,234695,
251746,234683,
251976,234828,
252035,234812,
252185,234925,
252177,234871,
252319,234967,
252229,234906,
252350,234997,
252290,234933,
252445,235016,
252441,235009,
252676,235126,
252713,235132,
252935,235243,
252947,235233,
253110,235342,
253045,235294,
253176,235350,
253062,235284,
253154,235334,
253017,235267,
253083,235320,
252992,235255,
253071,235304,
253001,235260,
253139,235349,
253124,235311,
253290,235406,
253266,235382,
253468,235502,
253474,235487,
253659,235575,
253682,235580,
253883,235680,
253895,235658,
254080,235761,
254084,235759,
254247,235845,
254245,235843,
254399,235920,
254363,235900,
254520,235972,
254476,235952,
254615,236018,
254567,235986,
254690,236037,
254631,236004,
254758,236083,
254725,236045,
254831,236116,
254792,236071,
254914,236145,
254869,236119,
254983,236194,
254945,236156,
255059,236211,
255036,236186,
255152,236243,
255128,236227,
255252,236300,
255252,236298,
255360,236364,
255376,236346,
255513,236430,
255497,236415,
255629,236492,
255593,236482,
255675,236506,
255566,236441,
255454,236403,
255039,236180,
254543,235955,
253842,235599,
253225,235341,
252621,235054,
252283,234951,
252016,234803,
251934,234815,
251913,234788,
252042,234895,
252126,234903,
252316,235018,
252442,235046,
252670,235174,
252752,235218,
252950,235323,
253015,235328,
253151,235401,
253172,235392,
253264,235434,
253243,235432,
253360,235500,
253423,235490,
253574,235600,
253651,235619,
253797,235696,
253840,235711,
253952,235770,
253932,235743,
253961,235759,
253876,235707,
253849,235712,
253746,235655,
253726,235626,
253638,235575,
253648,235582,
253584,235540,
253660,235607,
253639,235585,
253759,235640,
253775,235652,
253899,235698,
253956,235728,
254103,235797,
254145,235828,
254288,235867,
254326,235897,
254466,235946,
254477,235980,
254592,236017,
254617,236054,
254713,236070,
254722,236097,
254800,236129,
254788,236114,
254873,236139,
254871,236159,
254929,236168,
254926,236171,
254987,236197,
254962,236193,
255043,236209,
255013,236221,
255089,236233,
255089,236230,
255153,236242,
255139,236238,
255191,236262,
255187,236257,
255251,236285,
255242,236310,
255318,236313,
255341,236331,
255401,236376,
255422,236367,
255525,236412,
255567,236434,
255628,236450,
255656,236484,
255715,236492,
255725,236517,
255748,236502,
255640,236468,
255452,236347,
255018,236139,
254413,235825,
253667,235483,
252981,235157,
252363,234903,
251969,234752,
251698,234659,
251606,234622,
251602,234639,
251667,234661,
251788,234720,
251933,234776,
252078,234857,
252205,234888,
252303,234955,
252405,234974,
252440,235018,
252487,234996,
252469,235019,
252488,234997,
252486,235022,
252503,234998,
252543,235055,
252623,235048,
252708,235125,
252803,235116,
252849,235190,
252902,235174,
252907,235207,
252897,235152,
252867,235179,
252837,235133,
252788,235117,
252720,235076,
252674,235084,
252652,235049,
252653,235064,
252663,235038,
252694,235087,
252740,235080,
252819,235155,
252872,235136,
252958,235219,
253054,235228,
253157,235304,
253256,235295,
253342,235395,
253418,235378,
253517,235463,
253566,235442,
253633,235533,
253681,235506,
253743,235558,
253768,235526,
253817,235607,
253835,235554,
253869,235631,
253877,235589,
253904,235652,
253927,235600,
253955,235661,
253959,235619,
254030,235702,
254026,235649,
254078,235722,
254087,235658,
254138,235753,
254168,235689,
254209,235776,
254220,235713,
254298,235815,
254318,235762,
254374,235847,
254393,235796,
254494,235876,
254492,235839,
254567,235935,
254585,235883,
254645,235948,
254661,235917,
254731,235997,
254737,235957,
254794,236024,
254812,235981,
254875,236067,
254888,236023,
254971,236113,
254982,236045,
255055,236139,
255060,236092,
255163,236181,
255157,236139,
255276,236231,
255245,236163,
255292,236222,
255051,236072,
254767,235962,
254094,235588,
253346,235263,
252528,234855,
251912,234656,
251367,234365,
251159,234346,
250978,234211,
250967,234258,
250906,234202,
251012,234300,
251048,234271,
251229,234412,
251287,234400,
251473,234537,
251522,234485,
251655,234607,
251647,234543,
251735,234621,
251676,234526,
251717,234606,
251618,234524,
251646,234580,
251591,234491,
251663,234604,
251655,234522,
251798,234646,
251787,234598,
251944,234696,
251919,234648,
252009,234725,
251975,234666,
252045,234733,
251978,234662,
252008,234721,
251925,234628,
251983,234678,
251909,234626,
252006,234720,
251987,234654,
252104,234740,
252087,234711,
252225,234827,
252230,234768,
252410,234880,
252438,234845,
252568,234988,
252621,234945,
252810,235079,
252832,235044,
253003,235158,
253019,235115,
253163,235236,
253160,235196,
253310,235287,
253302,235251,
253438,235362,
253408,235299,
253520,235391,
253478,235324,
253597,235415,
253552,235356,
253678,235460,
253639,235397,
253791,235509,
253739,235440,
253848,235541,
253795,235474,
253919,235584,
253904,235512,
254015,235606,
253985,235564,
254115,235652,
254086,235599,
254211,235710,
254175,235655,
254325,235746,
254295,235678,
254412,235778,
254381,235730,
254531,235840,
254490,235767,
254590,235864,
254564,235805,
254677,235899,
254616,235833,
254736,235916,
254688,235854,
254818,235959,
254792,235907,
254897,235994,
254869,235939,
254993,236054,
254993,235984,
255115,236087,
255067,236029,
255138,236096,
254953,235962,
254727,235883,
254106,235512,
253466,235246,
252599,234793,
251948,234577,
251305,234257,
251064,234208,
250781,234035,
250755,234112,
250661,234014,
250783,234106,
250766,234060,
250948,234180,
250971,234168,
251167,234307,
251179,234255,
251367,234385,
251337,234316,
251471,234432,
251407,234328,
251484,234414,
251370,234319,
251435,234397,
251333,234297,
251408,234399,
251365,234311,
251510,234438,
251491,234389,
251630,234478,
251584,234407,
251683,234503,
251613,234427,
251706,234511,
251613,234422,
251667,234491,
251574,234377,
251639,234485,
251531,234363,
251620,234458,
251538,234392,
251654,234482,
251615,234408,
251764,234522,
251740,234453,
251909,234583,
251890,234542,
252098,234683,
252108,234641,
252304,234744,
252307,234714,
252498,234836,
252484,234799,
252658,234911,
252631,234882,
252791,234970,
252722,234924,
252868,235013,
252792,234953,
252948,235028,
252896,234993,
253024,235064,
252959,235014,
253104,235093,
253030,235055,
253150,235124,
253085,235073,
253211,235154,
253165,235118,
253283,235182,
253227,235131,
253362,235212,
253286,235175,
253439,235250,
253399,235211,
253530,235279,
253478,235243,
253615,235313,
253585,235296,
253716,235370,
253693,235332,
253812,235397,
253775,235358,
253894,235444,
253836,235401,
253975,235483,
253923,235432,
254025,235502,
253962,235459,
254073,235513,
253998,235483,
254128,235544,
254067,235513,
254182,235569,
254141,235542,
254239,235600,
254220,235563,
254320,235622,
254294,235583,
254352,235660,
254285,235588,
254206,235565,
253830,235340,
253351,235099,
252589,234721,
251923,234463,
251216,234156,
250864,234019,
250543,233874,
250443,233813,
250294,233750,
250351,233797,
250338,233777,
250467,233853,
250494,233851,
250653,233941,
250715,233970,
250852,234047,
250909,234054,
251009,234093,
251020,234080,
251072,234143,
251018,234084,
251047,234118,
250962,234062,
250998,234094,
250949,234051,
251040,234109,
251024,234101,
251127,234143,
251125,234141,
251210,234162,
251170,234167,
251242,234197,
251196,234144,
251220,234163,
251135,234129,
251148,234123,
251083,234110,
251113,234124,
251073,234102,
251117,234119,
251100,234096,
251213,234160,
251189,234115,
251300,234173,
251307,234193,
251434,234251,
251479,234267,
251603,234321,
251643,234339,
251771,234390,
251801,234406,
251932,234468,
251959,234478,
252082,234525,
252095,234536,
252193,234576,
252182,234585,
252299,234611,
252281,234639,
252361,234663,
252358,234673,
252453,234684,
252474,234706,
252549,234722,
252531,234717,
252595,234746,
252593,234776,
252703,234786,
252686,234787,
252793,234832,
252785,234860,
252875,234881,
252888,234882,
252984,234898,
252999,234926,
253096,234951,
253104,234974,
253206,235013,
253215,235036,
253303,235049,
253311,235071,
253426,235099,
253442,235111,
253506,235141,
253518,235162,
253607,235181,
253598,235180,
253671,235213,
253683,235235,
253755,235251,
253765,235256,
253822,235275,
253849,235323,
253942,235331,
253971,235346,
254042,235362,
254080,235401,
254126,235405,
254101,235412,
254016,235349,
253716,235204,
253218,234925,
252510,234599,
251774,234254,
251114,233988,
250680,233778,
250397,233677,
250219,233569,
250107,233541,
250117,233545,
250139,233576,
250226,233582,
250301,233663,
250426,233678,
250509,233757,
250639,233770,
250711,233848,
250822,233866,
250860,233913,
250915,233894,
250920,233932,
250912,233890,
250876,233922,
250873,233874,
250857,233907,
250908,233916,
250957,233952,
251008,233946,
251042,233988,
251102,233957,
251125,234010,
251112,233992,
251121,234022,
251107,233973,
251095,233982,
251086,233949,
251050,233966,
251042,233926,
251043,233972,
251068,233938,
251090,234001,
251097,233960,
251186,234047,
251232,234024,
251320,234097,
251397,234100,
251513,234209,
251589,234172,
251692,234271,
251772,234267,
251875,234372,
251975,234342,
252080,234447,
252141,234430,
252232,234526,
252282,234471,
252379,234581,
252412,234543,
252497,234627,
252523,234579,
252593,234657,
252617,234617,
252671,234688,
252680,234649,
252750,234734,
252782,234704,
252863,234782,
252891,234732,
252958,234830,
252980,234762,
253062,234858,
253074,234827,
253159,234895,
253172,234866,
253285,234954,
253295,234930,
253407,235022,
253410,234982,
253510,235080,
253534,235024,
253628,235131,
253653,235073,
253716,235173,
253750,235128,
253833,235225,
253824,235163,
253919,235251,
253886,235206,
253988,235277,
253937,235213,
254029,235306,
254015,235243,
254118,235341,
254095,235284,
COM4 disconnected!
