COM4 connected!
220477,196264,
220382,196216,
220388,196211,
220266,196145,
220298,196151,
220201,196096,
220219,196114,
220157,196093,
220226,196119,
220164,196089,
220251,196129,
220214,196114,
220279,196141,
220247,196152,
220292,196155,
220242,196142,
220301,196163,
220268,196147,
220312,196170,
220280,196152,
220343,196171,
220280,196166,
220353,196164,
220305,196181,
220357,196174,
220328,196179,
220362,196176,
220328,196185,
220393,196186,
220338,196177,
220374,196176,
220338,196172,
220371,196167,
220330,196176,
220359,196164,
220347,196162,
220370,196163,
220343,196155,
220376,196164,
220348,196154,
220384,196163,
220343,196156,
220385,196167,
220372,196168,
220418,196187,
220382,196191,
220427,196181,
220422,196201,
220432,196204,
220430,196205,
220448,196200,
220425,196206,
220461,196191,
220452,196211,
220461,196200,
220457,196215,
220486,196199,
220497,196221,
220482,196199,
220482,196224,
220494,196199,
220497,196230,
220509,196208,
220514,196201,
220504,196196,
220518,196220,
220507,196195,
220514,196237,
220530,196201,
220521,196235,
220536,196201,
220527,196230,
220533,196194,
220553,196229,
220541,196205,
220538,196231,
220549,196199,
220534,196231,
220553,196185,
220543,196219,
220579,196201,
220556,196242,
220572,196213,
220587,196249,
220575,196210,
220599,196239,
220589,196205,
220600,196245,
220587,196218,
220601,196237,
220576,196204,
220555,196200,
220519,196147,
220473,196168,
220396,196103,
220361,196122,
220311,196051,
220288,196068,
220216,196000,
220241,196036,
220196,195981,
220226,196031,
220202,195983,
220243,196059,
220233,195998,
220296,196078,
220255,196019,
220321,196091,
220297,196035,
220344,196095,
220295,196042,
220348,196101,
220319,196033,
220352,196116,
220314,196048,
220367,196123,
220342,196055,
220390,196118,
220369,196061,
220412,196117,
220371,196063,
220414,196131,
220379,196051,
220399,196116,
220386,196047,
220411,196106,
220360,196039,
220403,196108,
220350,196033,
220410,196089,
220356,196035,
220413,196091,
220365,196027,
220435,196104,
220406,196043,
220460,196118,
220409,196043,
220467,196125,
220422,196061,
220491,196133,
220428,196047,
220512,196148,
220429,196071,
220507,196142,
220458,196079,
220538,196123,
220454,196067,
220553,196137,
220486,196081,
220560,196137,
220501,196089,
220558,196155,
220499,196085,
220566,196158,
220499,196066,
220581,196157,
220520,196077,
220590,196147,
220522,196065,
220595,196131,
220518,196072,
220609,196146,
220520,196065,
220610,196140,
220529,196082,
220622,196154,
220544,196080,
220640,196145,
220544,196071,
220643,196153,
220562,196100,
220657,196174,
220565,196083,
220664,196169,
220556,196090,
220661,196152,
220585,196084,
220673,196174,
220599,196106,
220697,196190,
220604,196114,
220708,196186,
220606,196118,
220692,196170,
220603,196095,
220674,196150,
220562,196063,
220586,196107,
220424,195987,
220462,196019,
220323,195927,
220368,195978,
220231,195879,
220305,195943,
220186,195872,
220313,195938,
220221,195872,
220318,195955,
220244,195880,
220347,195958,
220292,195914,
220394,195989,
220332,195920,
220421,195993,
220338,195932,
220456,196005,
220350,195933,
220445,195998,
220371,195926,
220466,196008,
220382,195945,
220493,196038,
220396,195951,
220504,196032,
220424,195948,
220524,196036,
220412,195964,
220508,196031,
220418,195940,
220522,196030,
220409,195952,
220519,196017,
220415,195925,
220524,196000,
220410,195937,
220534,196024,
220430,195942,
220550,196033,
220446,195947,
220571,196038,
220469,195946,
220572,196038,
220497,195964,
220593,196055,
220533,195979,
220636,196072,
220539,195992,
220664,196077,
220541,195990,
220656,196084,
220567,195989,
220668,196090,
220562,195981,
220678,196072,
220580,195990,
220675,196080,
220591,195994,
220701,196064,
220605,195987,
220687,196071,
220595,196002,
220708,196074,
220612,195990,
220720,196079,
220606,196001,
220715,196082,
220619,195995,
220733,196076,
220637,196011,
220745,196087,
220634,196008,
220753,196078,
220662,196021,
220770,196082,
220669,196014,
220786,196104,
220661,196025,
220782,196092,
220681,196040,
220788,196106,
220676,196041,
220794,196113,
220704,196035,
220808,196109,
220710,196061,
220826,196116,
220702,196051,
220806,196106,
220690,196050,
220784,196106,
220660,196025,
220719,196048,
220543,195946,
220599,195969,
220442,195888,
220461,195914,
220302,195823,
220347,195856,
220250,195792,
220345,195828,
220263,195807,
220365,195852,
220302,195834,
220431,195874,
220360,195830,
220466,195878,
220397,195844,
220508,195904,
220407,195865,
220529,195911,
220459,195875,
220541,195919,
220444,195860,
220552,195929,
220482,195887,
220585,195929,
220537,195892,
220606,195924,
220528,195888,
220604,195934,
220524,195879,
220609,195931,
220530,195898,
220592,195921,
220535,195883,
220580,195929,
220512,195879,
220600,195911,
220534,195879,
220610,195915,
220541,195878,
220625,195917,
220547,195874,
220632,195929,
220569,195885,
220661,195933,
220596,195899,
220676,195935,
220625,195916,
220700,195951,
220619,195913,
220690,195965,
220622,195917,
220699,195945,
220641,195935,
220692,195947,
220638,195916,
220710,195954,
220661,195941,
220728,195956,
220659,195930,
220722,195954,
220674,195931,
220741,195950,
220676,195948,
220748,195971,
220691,195936,
220740,195961,
220688,195955,
220768,195964,
220693,195951,
220762,195959,
220706,195955,
220774,195974,
220725,195949,
220788,195966,
220737,195964,
220802,195979,
220744,195981,
220799,195979,
220749,195971,
220807,195971,
220758,195985,
220813,195974,
220755,195980,
220806,195974,
220767,195963,
220843,195962,
220785,195974,
220844,195994,
220808,195991,
220846,195990,
220803,195986,
220829,195975,
220764,195956,
220787,195944,
220699,195909,
220673,195881,
220574,195836,
220555,195814,
220455,195770,
220421,195751,
220345,195730,
220341,195718,
220332,195710,
220382,195709,
220381,195738,
220436,195757,
220446,195752,
220484,195755,
220498,195774,
220525,195776,
220520,195811,
220566,195792,
220546,195803,
220571,195802,
220565,195800,
220589,195804,
220597,195797,
220619,195814,
220615,195829,
220631,195829,
220635,195837,
220655,195815,
220639,195841,
220642,195805,
220632,195829,
220633,195807,
220621,195821,
220626,195791,
220627,195825,
220622,195776,
220612,195815,
220641,195785,
220606,195820,
220646,195801,
220652,195845,
220654,195831,
220666,195844,
220688,195813,
220706,195856,
220706,195826,
220711,195848,
220730,195828,
220735,195885,
220741,195843,
220765,195874,
220751,195840,
220766,195887,
220775,195838,
220762,195898,
220783,195855,
220792,195907,
220784,195851,
220791,195902,
220791,195860,
220801,195908,
220801,195860,
220810,195910,
220783,195863,
220837,195923,
220785,195838,
220840,195916,
220786,195855,
220827,195925,
220801,195848,
220828,195916,
220801,195856,
220857,195917,
220818,195858,
220846,195921,
220839,195858,
220878,195920,
220844,195865,
220865,195922,
220856,195860,
220878,195924,
220849,195875,
220888,195926,
220843,195890,
220901,195926,
220860,195871,
220895,195915,
220870,195857,
220926,195928,
220874,195863,
220940,195944,
220882,195879,
220932,195932,
220877,195870,
220930,195943,
220875,195846,
220902,195906,
220803,195807,
220797,195838,
220651,195719,
220631,195753,
220459,195630,
220414,195653,
220289,195575,
220338,195616,
220278,195540,
220399,195643,
220364,195592,
220484,195672,
220434,195615,
220537,195709,
220499,195637,
220599,195723,
220539,195664,
220635,195732,
220559,195674,
220647,195742,
220584,195666,
220647,195762,
220593,195694,
220684,195771,
220624,195695,
220699,195763,
220645,195696,
220727,195778,
220654,195705,
220721,195776,
220653,195697,
220744,195751,
220646,195694,
220713,195744,
220646,195688,
220722,195759,
220630,195692,
220708,195747,
220647,195678,
220723,195754,
220645,195690,
220755,195760,
220671,195701,
220772,195781,
220681,195717,
220786,195793,
220708,195733,
220816,195795,
220733,195734,
220841,195824,
220767,195736,
220876,195828,
220781,195740,
220862,195824,
220779,195748,
220884,195838,
220790,195754,
220880,195843,
220798,195745,
220880,195846,
220804,195753,
220894,195834,
220810,195752,
220899,195843,
220811,195756,
220915,195837,
220826,195756,
220927,195832,
220846,195759,
220926,195834,
220835,195750,
220929,195832,
220845,195751,
220928,195833,
220857,195772,
220951,195834,
220878,195762,
220967,195857,
220898,195759,
220984,195852,
220899,195764,
221002,195849,
220907,195772,
221010,195858,
220939,195786,
221002,195850,
220933,195782,
221034,195867,
220931,195774,
221036,195869,
220959,195781,
221049,195871,
220920,195767,
220995,195824,
220840,195698,
220882,195752,
220707,195619,
220729,195684,
220527,195542,
220545,195597,
220425,195505,
220515,195582,
220441,195478,
220561,195584,
220482,195515,
220620,195619,
220545,195539,
220674,195653,
220594,195566,
220716,195667,
220646,195581,
220761,195677,
220683,195591,
220766,195679,
220669,195603,
220792,195679,
220701,195611,
220800,195679,
220710,195610,
220828,195710,
220719,195629,
220826,195707,
220746,195620,
220849,195716,
220747,195627,
220857,195694,
220733,195618,
220824,195694,
220713,195610,
220822,195679,
220698,195605,
220822,195672,
220713,195615,
220848,195664,
220728,195623,
220859,195685,
220746,195629,
220878,195687,
220783,195635,
220909,195701,
220788,195640,
220912,195695,
220794,195658,
220932,195694,
220832,195656,
220945,195711,
220833,195662,
220928,195707,
220832,195676,
220954,195710,
220846,195666,
220957,195715,
220853,195654,
220953,195707,
220866,195663,
220951,195709,
220871,195674,
220973,195716,
220877,195659,
220978,195714,
220882,195659,
220981,195715,
220895,195677,
220994,195713,
220915,195677,
220995,195723,
220910,195676,
221008,195716,
220922,195677,
221008,195723,
220937,195668,
221037,195719,
220943,195684,
221034,195724,
220960,195681,
221041,195730,
220982,195680,
221046,195718,
220978,195696,
221068,195730,
220988,195690,
221055,195719,
220957,195669,
221004,195697,
220910,195630,
220903,195637,
220760,195558,
220769,195571,
220650,195490,
220648,195500,
220523,195444,
220553,195443,
220495,195420,
220580,195462,
220542,195445,
220622,195501,
220588,195452,
220664,195504,
220633,195478,
220706,195516,
220668,195503,
220724,195526,
220673,195501,
220737,195526,
220671,195507,
220770,195538,
220713,195509,
220780,195529,
220733,195521,
220797,195554,
220763,195526,
220820,195568,
220777,195529,
220806,195549,
220771,195534,
220827,195545,
220775,195544,
220806,195552,
220758,195530,
220819,195533,
220765,195531,
220810,195533,
220751,195530,
220825,195535,
220775,195523,
220835,195549,
220795,195541,
220866,195550,
220804,195551,
220879,195543,
220818,195556,
220882,195547,
220848,195570,
220900,195565,
220861,195576,
220917,195574,
220888,195567,
220926,195582,
220886,195581,
220953,195587,
220908,195580,
220959,195579,
220928,195587,
220959,195578,
220912,195582,
220956,195582,
220925,195604,
220965,195585,
220930,195604,
220970,195586,
220951,195592,
220963,195583,
220956,195596,
220984,195597,
220964,195598,
220998,195585,
220967,195607,
220993,195591,
220993,195613,
220995,195582,
221007,195596,
221034,195590,
221022,195606,
221033,195607,
221028,195625,
221050,195607,
221071,195629,
221074,195603,
221074,195629,
221070,195613,
221062,195635,
221078,195613,
221078,195613,
221027,195575,
220965,195573,
220907,195506,
220846,195501,
220767,195415,
220682,195422,
220627,195355,
220569,195357,
220528,195315,
220536,195340,
220541,195320,
220567,195367,
220599,195337,
220643,195383,
220670,195379,
220686,195393,
220693,195387,
220722,195400,
220717,195395,
220732,195422,
220734,195388,
220759,195438,
220753,195390,
220766,195431,
220767,195404,
220797,195440,
220787,195419,
220809,195459,
220794,195420,
220811,195467,
220808,195412,
220839,195465,
220803,195412,
220829,195461,
220808,195406,
220823,195456,
220802,195401,
220830,195464,
220801,195397,
220836,195471,
220804,195406,
220851,195482,
220834,195407,
220848,195464,
220824,195423,
220887,195500,
220857,195438,
220916,195490,
220866,195430,
220918,195499,
220896,195431,
220938,195503,
220901,195452,
220944,195509,
220906,195458,
220960,195510,
220928,195463,
220956,195510,
220955,195461,
221005,195519,
220958,195467,
220981,195516,
220960,195472,
221020,195529,
220971,195465,
221031,195524,
220979,195459,
221040,195526,
220973,195460,
221037,195533,
220969,195450,
221049,195526,
220999,195463,
221048,195526,
221008,195473,
221083,195555,
220996,195467,
221096,195553,
221021,195459,
221112,195567,
221040,195474,
221113,195557,
221045,195480,
221120,195547,
221054,195477,
221148,195561,
221081,195491,
221136,195572,
221075,195484,
221157,195572,
221090,195487,
221160,195567,
221062,195474,
221125,195538,
221021,195434,
221018,195496,
220889,195373,
220904,195405,
220769,195307,
220739,195338,
220599,195237,
220636,195285,
220561,195205,
220650,195282,
220591,195230,
220695,195297,
220652,195234,
220765,195321,
220685,195252,
220778,195339,
220720,195264,
220810,195353,
220724,195276,
220828,195367,
220754,195276,
220841,195356,
220742,195300,
220853,195359,
220768,195304,
220881,195370,
220786,195296,
220896,195379,
220810,195308,
220900,195400,
220821,195307,
220922,195387,
220834,195300,
220915,195388,
220816,195310,
220905,195389,
220842,195317,
220922,195390,
220834,195318,
220917,195393,
220826,195309,
220948,195395,
220840,195325,
220945,195404,
220888,195321,
220971,195401,
220896,195331,
220987,195410,
220901,195334,
221000,195397,
220914,195335,
221012,195417,
220939,195336,
221020,195428,
220946,195331,
221040,195412,
220957,195355,
221065,195426,
220952,195349,
221068,195448,
220983,195346,
221078,195435,
220981,195357,
221087,195438,
221006,195354,
221114,195448,
221018,195347,
221118,195451,
221035,195375,
221132,195466,
221019,195367,
221128,195466,
221031,195360,
221136,195450,
221035,195368,
221139,195456,
221069,195387,
221147,195466,
221070,195378,
221157,195463,
221063,195366,
221135,195459,
221076,195359,
221163,195466,
221086,195391,
221185,195462,
221098,195380,
221199,195449,
221095,195403,
221206,195466,
221104,195394,
221183,195458,
221060,195370,
221136,195416,
220971,195302,
221016,195343,
220849,195245,
220908,195288,
220743,195197,
220780,195228,
220652,195143,
220756,195224,
220663,195146,
220770,195234,
220698,195174,
220816,195235,
220745,195174,
220855,195265,
220763,195195,
220876,195277,
220785,195213,
220903,195279,
220768,195236,
220897,195283,
220796,195225,
220907,195281,
220789,195225,
220915,195287,
220799,195235,
220926,195269,
220839,195236,
220937,195284,
220848,195231,
220946,195291,
220850,195236,
220932,195287,
220832,195237,
220939,195277,
220844,195214,
220945,195273,
220859,195231,
220952,195270,
220841,195219,
220967,195278,
220870,195233,
220947,195283,
220880,195231,
221002,195289,
220897,195252,
221003,195288,
220943,195258,
221035,195285,
220946,195245,
221034,195297,
220965,195230,
221044,195297,
220978,195260,
221062,195308,
220997,195260,
221059,195309,
220993,195263,
221086,195320,
221014,195267,
221108,195313,
221014,195269,
221116,195308,
221030,195269,
221115,195319,
221028,195281,
221120,195327,
221039,195266,
221119,195298,
221055,195282,
221123,195320,
221062,195268,
221118,195323,
221059,195275,
221135,195311,
221057,195290,
221143,195326,
221069,195286,
221146,195304,
221084,195291,
221162,195324,
221101,195296,
221175,195321,
221112,195308,
221188,195332,
221120,195307,
221173,195312,
221077,195293,
221114,195281,
220992,195231,
220996,195228,
220881,195173,
220887,195155,
220784,195118,
220800,195132,
220749,195091,
220790,195123,
220760,195102,
220818,195125,
220799,195136,
220863,195146,
220818,195163,
220906,195162,
220861,195161,
220915,195168,
220876,195168,
220948,195174,
220876,195169,
220949,195181,
220904,195170,
220961,195181,
220913,195184,
220992,195187,
220949,195194,
220997,195200,
220962,195192,
220992,195206,
220951,195183,
220982,195187,
220951,195182,
220990,195186,
220946,195182,
220993,195189,
220942,195185,
220992,195178,
220980,195179,
221015,195174,
220982,195184,
221016,195182,
221002,195192,
221037,195184,
221011,195195,
221054,195205,
221040,195201,
221074,195205,
221065,195246,
221080,195204,
221081,195231,
221105,195218,
221109,195229,
221106,195217,
221094,195239,
221129,195221,
221113,195253,
221130,195222,
221120,195241,
221129,195213,
221125,195237,
221134,195222,
221135,195248,
221140,195211,
221112,195257,
221131,195223,
221126,195247,
221141,195225,
221129,195249,
221150,195227,
221125,195249,
221163,195227,
221151,195241,
221162,195217,
221164,195263,
221181,195235,
221175,195269,
221180,195235,
221195,195281,
221197,195231,
221196,195271,
221178,195225,
221166,195253,
221149,195200,
221126,195222,
221079,195156,
221018,195182,
220987,195098,
220955,195120,
220924,195071,
220907,195114,
220876,195048,
220894,195110,
220865,195031,
220892,195105,
220881,195038,
220943,195120,
220916,195055,
220971,195127,
220937,195071,
220990,195135,
220953,195085,
220987,195142,
220960,195089,
221010,195162,
220989,195089,
221015,195156,
220997,195094,
221027,195153,
221013,195106,
221064,195166,
221014,195113,
221042,195157,
221017,195097,
221034,195163,
221006,195089,
221037,195140,
221011,195074,
221041,195126,
221004,195070,
221039,195150,
221001,195069,
221045,195139,
220992,195088,
221061,195155,
221029,195077,
221087,195139,
221054,195085,
221120,195177,
221056,195084,
221139,195176,
221069,195100,
221158,195185,
221081,195108,
221146,195184,
221108,195104,
221181,195177,
221102,195122,
221180,195188,
221103,195115,
221185,195192,
221118,195124,
221194,195196,
221144,195117,
221192,195201,
221126,195095,
221174,195195,
221123,195103,
221192,195193,
221121,195118,
221204,195184,
221125,195115,
221203,195186,
221129,195125,
221237,195193,
221140,195132,
221229,195196,
221174,195121,
221247,195198,
221154,195115,
221254,195207,
221190,195126,
221283,195219,
221186,195133,
221256,195196,
221138,195105,
221212,195172,
221081,195060,
221123,195106,
220985,195005,
221000,195053,
220889,194968,
220940,195018,
220830,194932,
220926,195008,
220822,194943,
220941,195015,
220858,194950,
220951,195034,
220888,194952,
220997,195043,
220919,194974,
221009,195050,
220943,194967,
221025,195053,
220941,194985,
221025,195050,
220957,194988,
221045,195042,
220978,194994,
221069,195059,
220993,195006,
221085,195068,
221008,195008,
221073,195065,
220990,194996,
221076,195081,
221005,194995,
221087,195064,
221011,194989,
221078,195060,
221005,194962,
221094,195060,
220994,194960,
221107,195070,
221012,194972,
221117,195068,
221030,194987,
221141,195082,
221048,195005,
221149,195069,
221074,195003,
221174,195094,
221075,195005,
221173,195096,
221092,195013,
221214,195115,
221118,195015,
221218,195106,
221139,195030,
221200,195119,
221144,195026,
221234,195115,
221154,195027,
221239,195117,
221151,195040,
221232,195118,
221143,195025,
221254,195115,
221144,195044,
221262,195121,
221168,195045,
221260,195125,
221160,195036,
221283,195123,
221179,195052,
221291,195116,
221193,195070,
221308,195125,
221201,195068,
221309,195134,
221196,195068,
221320,195139,
221204,195062,
221325,195139,
221238,195082,
221349,195146,
221230,195069,
221334,195138,
221196,195054,
221295,195089,
221117,195010,
221187,195035,
221032,194955,
221093,194969,
220924,194900,
221009,194932,
220871,194872,
220958,194913,
220846,194869,
220980,194907,
220878,194866,
220999,194933,
220910,194890,
221028,194925,
220954,194893,
221052,194955,
220965,194898,
221074,194961,
220978,194914,
221081,194957,
220989,194924,
221093,194970,
221010,194915,
221112,194966,
221038,194937,
221139,194977,
221055,194919,
221134,194977,
221054,194925,
221123,194985,
221070,194939,
221134,194956,
221039,194920,
221123,194977,
221052,194920,
221115,194967,
221058,194928,
221119,194964,
221080,194927,
221136,194961,
221081,194929,
221163,194980,
221087,194936,
221155,194990,
221102,194951,
221181,194995,
221127,194957,
221191,194991,
221131,194960,
221211,195003,
221156,194957,
221227,195007,
221161,194972,
221228,195000,
221170,194988,
221234,195011,
221174,194975,
221239,195004,
221193,194990,
221255,195020,
221184,194998,
221258,195003,
221194,194989,
221269,195005,
221208,195006,
221264,195008,
221223,195010,
221298,195033,
221236,195016,
221281,195024,
221235,195006,
221291,195015,
221251,194998,
221312,195032,
221258,195020,
221312,195039,
221261,195048,
221333,195045,
221282,195035,
221334,195045,
221280,195034,
221357,195037,
221298,195027,
221325,195034,
221257,195017,
221272,194997,
221179,194971,
221180,194935,
221087,194907,
221099,194883,
221020,194856,
221008,194853,
220946,194823,
220969,194825,
220926,194831,
220971,194808,
220949,194830,
221006,194831,
220987,194839,
221029,194838,
221018,194875,
221058,194851,
221046,194872,
221061,194859,
221055,194860,
221081,194856,
221083,194882,
221076,194860,
221086,194882,
221094,194864,
221107,194886,
221104,194870,
221127,194894,
221121,194871,
221113,194896,
221130,194866,
221133,194901,
221124,194870,
221112,194893,
221112,194851,
221097,194885,
221131,194842,
221113,194873,
221117,194841,
221113,194882,
221130,194855,
221141,194895,
221142,194859,
221156,194901,
221164,194870,
221155,194916,
221167,194888,
221184,194919,
221175,194893,
221209,194927,
221209,194894,
221225,194911,
221227,194904,
221225,194949,
221242,194896,
221249,194948,
221255,194905,
221264,194969,
221245,194895,
221284,194962,
221245,194908,
221281,194958,
221253,194916,
221285,194972,
221263,194912,
221306,194977,
221248,194900,
221295,194969,
221267,194912,
221311,194974,
221254,194900,
221310,194991,
221288,194906,
221317,194961,
221284,194919,
221323,194969,
221303,194926,
221323,194986,
221312,194927,
221357,194992,
221338,194938,
221375,194991,
221329,194921,
221383,194999,
221345,194923,
221386,194990,
221321,194929,
221369,194970,
221277,194881,
221296,194927,
221178,194814,
221207,194844,
221099,194757,
221112,194829,
221019,194737,
221056,194798,
220966,194712,
221046,194772,
220969,194711,
221050,194773,
220981,194718,
221084,194795,
221037,194723,
221106,194818,
221058,194735,
221124,194821,
221064,194747,
221156,194825,
221070,194763,
221120,194836,
221071,194750,
221136,194821,
221094,194747,
221163,194835,
221093,194762,
221157,194834,
221112,194767,
221177,194848,
221108,194758,
221209,194836,
221114,194760,
221202,194819,
221096,194776,
221179,194842,
221107,194757,
221185,194843,
221104,194758,
221191,194831,
221109,194761,
221205,194839,
221125,194765,
221225,194854,
221141,194782,
221252,194858,
221154,194788,
221241,194846,
221162,194772,
221277,194877,
221174,194785,
221303,194872,
221207,194811,
221303,194884,
221200,194811,
221319,194896,
221219,194812,
221301,194875,
221219,194805,
221315,194880,
221245,194800,
221321,194875,
221220,194808,
221318,194877,
221230,194807,
221329,194884,
221254,194805,
221334,194887,
221256,194808,
221347,194885,
221265,194809,
221362,194889,
221271,194813,
221374,194894,
221274,194802,
221390,194891,
221288,194811,
221384,194902,
221305,194813,
221398,194891,
221315,194822,
221416,194911,
221321,194841,
221432,194903,
221321,194815,
221439,194916,
221338,194832,
221450,194925,
221334,194823,
221431,194905,
221302,194790,
221382,194846,
221234,194753,
221273,194813,
221127,194697,
221183,194761,
221054,194655,
221103,194723,
220993,194611,
221082,194698,
220992,194610,
221086,194708,
220999,194612,
221100,194704,
221019,194646,
221117,194720,
221037,194656,
221152,194720,
221046,194661,
221163,194722,
221066,194677,
221177,194731,
221075,194671,
221189,194730,
221080,194677,
221204,194752,
221115,194688,
221215,194752,
221106,194714,
221229,194750,
221116,194704,
221227,194752,
221093,194690,
221204,194743,
221096,194678,
221215,194742,
221107,194684,
221222,194747,
221109,194689,
221203,194741,
221114,194682,
221216,194746,
221134,194687,
221231,194738,
221160,194687,
221260,194744,
221170,194703,
221279,194757,
221173,194701,
221290,194762,
221182,194713,
221298,194767,
221210,194700,
221324,194773,
221238,194726,
221353,194776,
221261,194744,
221359,194795,
221267,194736,
221339,194765,
221269,194743,
221353,194780,
221286,194736,
221371,194773,
221297,194727,
221373,194765,
221285,194740,
221358,194773,
221313,194749,
221385,194778,
221319,194740,
221392,194769,
221318,194743,
221379,194780,
221327,194736,
221411,194775,
221335,194735,
221397,194799,
221352,194751,
221426,194786,
221374,194740,
221427,194776,
221371,194757,
221442,194783,
221382,194779,
221458,194775,
221392,194763,
221478,194794,
221411,194756,
221484,194776,
221400,194762,
221463,194773,
221406,194755,
221424,194752,
221335,194716,
221338,194704,
221247,194662,
221240,194644,
221143,194608,
221174,194600,
221102,194584,
221128,194577,
221049,194575,
221099,194577,
221051,194577,
221143,194585,
221092,194587,
221154,194605,
221115,194602,
221188,194610,
221137,194597,
221193,194616,
221155,194612,
221198,194626,
221151,194598,
221194,194627,
221154,194610,
221209,194626,
221180,194639,
221228,194628,
221200,194628,
221234,194634,
221204,194628,
221247,194638,
221220,194623,
221266,194618,
221226,194625,
221247,194614,
221227,194615,
221242,194592,
221245,194624,
221240,194607,
221241,194621,
221262,194615,
221233,194625,
221274,194617,
221267,194637,
221283,194629,
221290,194641,
221314,194627,
221314,194667,
221326,194646,
221340,194666,
221348,194641,
221325,194655,
221355,194641,
221345,194676,
221361,194647,
221377,194666,
221369,194650,
221379,194683,
221388,194651,
221385,194671,
221395,194645,
221400,194685,
221399,194653,
221389,194674,
221399,194663,
221413,194677,
221408,194662,
221389,194700,
221389,194641,
221409,194698,
221407,194649,
221430,194698,
221417,194644,
221426,194709,
221419,194663,
221444,194707,
221426,194664,
221458,194719,
221425,194665,
221472,194728,
221449,194655,
221483,194727,
221444,194668,
221466,194728,
221450,194673,
221504,194747,
221446,194668,
221505,194742,
221468,194675,
221516,194731,
221473,194685,
221512,194737,
221490,194665,
221501,194727,
221441,194659,
221469,194691,
221374,194618,
221360,194645,
221281,194551,
221274,194575,
221186,194501,
221208,194559,
221142,194496,
221201,194540,
221143,194466,
221178,194552,
221141,194478,
221220,194551,
221154,194482,
221245,194567,
221181,194513,
221261,194580,
221212,194499,
221292,194586,
221217,194517,
221286,194577,
221230,194512,
221299,194567,
221239,194509,
221319,194589,
221233,194515,
221322,194612,
221247,194522,
221334,194601,
221267,194516,
221340,194589,
221259,194506,
221322,194575,
221259,194501,
221330,194572,
221251,194496,
221323,194571,
221253,194481,
221348,194565,
221245,194499,
221333,194562,
221274,194500,
221361,194572,
221284,194506,
221364,194576,
221283,194524,
221383,194592,
221312,194527,
221420,194608,
221318,194531,
221420,194613,
221333,194535,
221433,194612,
221350,194551,
221460,194628,
221357,194554,
221463,194637,
221378,194559,
221464,194630,
221374,194558,
221474,194626,
221380,194582,
221467,194655,
221371,194556,
221477,194652,
221384,194560,
221482,194640,
221407,194561,
221477,194619,
221401,194566,
221493,194652,
221408,194584,
221491,194638,
221414,194571,
221514,194649,
221420,194568,
221518,194658,
221440,194573,
221544,194659,
221448,194576,
221525,194660,
221462,194572,
221551,194663,
221472,194584,
221544,194654,
221477,194585,
221591,194670,
221495,194587,
221598,194686,
221480,194585,
221591,194680,
221500,194585,
221610,194670,
221477,194582,
221566,194649,
221443,194533,
221503,194604,
221341,194483,
221404,194546,
221256,194440,
221315,194512,
221167,194395,
221283,194469,
221158,194391,
221260,194464,
221156,194391,
221265,194468,
221168,194399,
221274,194469,
221193,194395,
221294,194481,
221224,194418,
221318,194488,
221240,194414,
221337,194506,
221249,194432,
221360,194490,
221250,194418,
221365,194493,
221265,194429,
221384,194516,
221279,194446,
221389,194502,
221283,194453,
221418,194495,
221284,194444,
221389,194514,
221289,194452,
221391,194495,
221270,194440,
221376,194484,
221254,194445,
221376,194467,
221268,194426,
221391,194486,
221280,194436,
221392,194487,
221297,194459,
221395,194517,
221321,194454,
221417,194516,
221341,194466,
221448,194506,
221345,194465,
221466,194516,
221372,194453,
221470,194523,
221375,194475,
221466,194519,
221387,194466,
221482,194505,
221405,194471,
221497,194525,
221433,194464,
221510,194524,
221430,194480,
221526,194506,
221449,194504,
221527,194531,
221455,194484,
221521,194534,
221461,194494,
221541,194530,
221480,194490,
221549,194537,
221477,194502,
221557,194542,
221475,194505,
221556,194541,
221489,194497,
221552,194545,
221485,194503,
221561,194540,
221497,194490,
221565,194527,
221500,194506,
221566,194536,
221502,194509,
221560,194540,
221516,194515,
221580,194548,
221508,194518,
221581,194554,
221538,194516,
221604,194541,
221541,194518,
221612,194547,
221549,194528,
221599,194536,
221537,194508,
221581,194522,
221488,194486,
221494,194479,
221398,194435,
221415,194425,
221314,194379,
221328,194382,
221241,194353,
221309,194367,
221241,194346,
221290,194357,
221226,194349,
221310,194355,
221282,194368,
221320,194365,
221284,194372,
221359,194392,
221306,194381,
221361,194397,
221316,194398,
221375,194396,
221332,194374,
221384,194390,
221342,194386,
221392,194398,
221360,194398,
221395,194403,
221383,194405,
221411,194407,
221372,194396,
221416,194405,
221380,194393,
221412,194388,
221379,194387,
221420,194376,
221371,194397,
221411,194383,
221376,194377,
221406,194391,
221373,194374,
221395,194367,
221388,194391,
221425,194375,
221413,194393,
221430,194395,
221446,194418,
221444,194393,
221459,194408,
221466,194404,
221479,194416,
221475,194392,
221485,194416,
221493,194395,
221486,194432,
221512,194407,
221495,194430,
221518,194399,
221513,194426,
221530,194405,
221501,194440,
221516,194405,
221520,194444,
221514,194402,
221529,194442,
221522,194414,
221535,194427,
221536,194411,
221546,194448,
221541,194409,
221548,194448,
221539,194420,
221540,194458,
221537,194407,
221543,194460,
221553,194421,
221567,194465,
221568,194396,
221581,194472,
221564,194428,
221584,194487,
221574,194416,
221603,194482,
221578,194430,
221609,194492,
221578,194418,
221625,194497,
221574,194431,
221629,194513,
221592,194435,
221641,194507,
221589,194435,
221642,194497,
221602,194432,
221657,194498,
221612,194421,
221638,194489,
221617,194434,
221636,194463,
221577,194393,
221591,194443,
221501,194357,
221533,194395,
221404,194288,
221424,194344,
221332,194257,
221377,194309,
221313,194226,
221362,194311,
221299,194227,
221373,194323,
221321,194238,
221402,194330,
221350,194256,
221449,194351,
221359,194268,
221464,194351,
221386,194256,
221472,194362,
221407,194276,
221483,194357,
221396,194274,
221497,194350,
221432,194277,
221484,194368,
221419,194287,
221502,194377,
221444,194286,
221497,194369,
221441,194289,
221502,194361,
221426,194286,
221499,194342,
221417,194278,
221502,194332,
221416,194264,
221495,194332,
221399,194275,
221497,194345,
221413,194282,
221510,194347,
221419,194260,
221521,194354,
221441,194280,
221537,194351,
221459,194298,
221559,194357,
221486,194309,
221586,194390,
221478,194314,
221587,194384,
221495,194316,
221596,194398,
221519,194330,
221617,194402,
221526,194321,
221630,194396,
221526,194309,
221634,194400,
221530,194311,
221615,194399,
221533,194319,
221628,194400,
221534,194316,
221627,194398,
221540,194315,
221639,194403,
221528,194330,
221644,194389,
221557,194323,
221633,194398,
221573,194328,
221663,194402,
221576,194332,
221652,194409,
221584,194333,
221681,194403,
221584,194323,
221689,194406,
221592,194331,
221688,194418,
221609,194321,
221710,194413,
221608,194340,
221717,194439,
221620,194344,
221725,194421,
221628,194357,
221747,194437,
221651,194355,
221753,194431,
221649,194336,
221738,194424,
221612,194306,
221668,194389,
221527,194269,
221574,194331,
221438,194220,
221493,194285,
221376,194165,
221440,194244,
221334,194138,
221417,194227,
221318,194137,
221427,194225,
221321,194138,
221430,194223,
221350,194149,
221454,194239,
221350,194158,
221485,194263,
221381,194178,
221491,194248,
221404,194185,
221508,194251,
221408,194173,
221513,194252,
221411,194193,
221534,194264,
221422,194212,
221551,194262,
221439,194202,
221562,194287,
221434,194221,
221545,194273,
221437,194207,
221548,194253,
221422,194209,
221528,194268,
221410,194199,
221541,194254,
221425,194198,
221533,194258,
221439,194206,
221538,194250,
221459,194205,
221550,194259,
221467,194222,
221573,194254,
221486,194218,
221589,194272,
221508,194232,
221604,194287,
221522,194221,
221626,194295,
221541,194250,
221621,194300,
221537,194254,
221634,194301,
221548,194255,
221652,194304,
221569,194256,
221663,194305,
221589,194250,
221663,194306,
221599,194260,
221666,194297,
221590,194256,
221683,194311,
221609,194255,
221689,194306,
221621,194256,
221679,194307,
221624,194265,
221685,194308,
221625,194268,
221718,194303,
221644,194251,
221697,194301,
221645,194256,
221703,194299,
221657,194270,
221729,194297,
221659,194276,
221751,194312,
221661,194254,
221736,194298,
221684,194273,
221757,194319,
221697,194272,
221761,194305,
221699,194285,
221771,194318,
221698,194276,
221758,194294,
221671,194250,
221690,194252,
221567,194193,
221573,194181,
221462,194128,
221471,194133,
221350,194085,
221346,194087,
221264,194053,
221304,194052,
221264,194039,
221327,194059,
221295,194067,
221352,194064,
221280,194073,
221384,194098,
221334,194087,
221409,194099,
221345,194101,
221423,194107,
221370,194108,
221439,194118,
221388,194117,
221449,194115,
221428,194115,
221456,194116,
221426,194113,
221477,194130,
221447,194126,
221486,194135,
221451,194122,
221490,194126,
221461,194136,
221487,194122,
221447,194114,
221492,194115,
221453,194125,
221470,194104,
221451,194122,
221484,194111,
221468,194110,
221511,194121,
221484,194129,
221505,194119,
221532,194136,
221529,194135,
221530,194158,
221537,194141,
221565,194170,
221587,194149,
221565,194163,
221592,194151,
221582,194179,
221611,194152,
221597,194179,
221613,194156,
221604,194190,
221623,194149,
221597,194194,
221631,194156,
221623,194187,
221643,194164,
221619,194182,
221645,194158,
221637,194186,
221656,194153,
221655,194185,
221652,194145,
221652,194196,
221656,194151,
221649,194197,
221677,194155,
221678,194200,
221689,194178,
221691,194208,
221689,194172,
221702,194205,
221707,194180,
221698,194220,
221706,194167,
221726,194229,
221706,194173,
221751,194241,
221714,194176,
221762,194236,
221723,194180,
221778,194250,
221705,194172,
221750,194229,
221673,194149,
221653,194192,
221586,194096,
221554,194130,
221472,194038,
221458,194075,
221396,193988,
221390,194031,
221325,193948,
221348,194003,
221291,193931,
221346,193993,
221316,193944,
221370,193996,
221342,193958,
221404,194023,
221352,193963,
221428,194036,
221406,193979,
221447,194032,
221395,193975,
221465,194064,
221416,193989,
221480,194051,
221425,193993,
221495,194069,
221439,193979,
221515,194079,
221441,194004,
221525,194088,
221462,193993,
221527,194083,
221452,193989,
221533,194073,
221460,194010,
221531,194078,
221467,194002,
221530,194073,
221449,193985,
221504,194066,
221457,194008,
221520,194079,
221480,194003,
221540,194081,
221484,194004,
221552,194062,
221489,194003,
221586,194094,
221526,194017,
221600,194087,
221536,194025,
221614,194094,
221542,194038,
221644,194092,
221543,194047,
221657,194126,
221571,194037,
221653,194114,
221570,194047,
221669,194112,
221584,194047,
221675,194118,
221599,194045,
221704,194130,
221595,194044,
221690,194118,
221608,194039,
221690,194131,
221604,194045,
221705,194123,
221616,194043,
221694,194145,
221600,194045,
221708,194122,
221614,194062,
221719,194122,
221632,194054,
221721,194118,
221640,194068,
221741,194121,
221657,194046,
221728,194131,
221663,194057,
221756,194135,
221680,194061,
221781,194131,
221679,194072,
221765,194128,
221660,194067,
221726,194096,
221591,193999,
221630,194041,
221491,193931,
221512,193997,
221379,193881,
221446,193941,
221313,193844,
221376,193928,
221265,193810,
221368,193903,
221249,193812,
221370,193886,
221275,193827,
221384,193913,
221299,193839,
221422,193922,
221331,193840,
221429,193930,
221331,193852,
221434,193939,
221347,193844,
221440,193924,
221325,193835,
221427,193942,
221363,193863,
221446,193934,
221354,193873,
221473,193945,
221375,193849,
221482,193947,
221390,193868,
221500,193958,
221389,193873,
221504,193950,
221403,193869,
221505,193951,
221380,193864,
221515,193949,
221398,193872,
221514,193933,
221411,193886,
221524,193956,
221436,193896,
221544,193982,
221440,193896,
221555,193966,
221463,193909,
221567,193970,
221467,193917,
221601,193968,
221491,193924,
221612,193980,
221511,193948,
221635,193978,
221515,193943,
221643,193997,
221548,193949,
221644,193997,
221539,193959,
221658,193998,
221538,193955,
221655,193998,
221561,193954,
221678,194005,
221560,193944,
221663,194003,
221586,193951,
221688,194002,
221593,193967,
221703,194000,
221609,193970,
221705,194012,
221607,193959,
221713,193994,
221626,193968,
221724,193989,
221631,193953,
221724,194013,
221662,193966,
221736,194011,
221668,193987,
221750,194038,
221669,193979,
221769,194023,
221692,193993,
221759,194030,
221692,193993,
221758,194024,
221655,193962,
221704,193976,
221569,193920,
221606,193909,
221483,193850,
221480,193868,
221349,193790,
221383,193809,
221278,193737,
221308,193784,
221228,193736,
221307,193786,
221250,193723,
221336,193777,
221262,193749,
221337,193791,
221281,193763,
221367,193782,
221293,193771,
221381,193814,
221301,193756,
221384,193807,
221299,193759,
221374,193784,
221304,193778,
221391,193791,
221331,193787,
221415,193812,
221363,193802,
221431,193810,
221384,193798,
221432,193819,
221386,193825,
221452,193817,
221376,193816,
221451,193810,
221383,193811,
221446,193812,
221381,193817,
221462,193820,
221402,193818,
221459,193817,
221419,193822,
221477,193816,
221417,193830,
221510,193830,
221462,193829,
221499,193831,
221469,193829,
221525,193849,
221496,193849,
221545,193839,
221525,193851,
221556,193858,
221516,193862,
221573,193867,
221542,193865,
221581,193862,
221559,193876,
221595,193884,
221574,193869,
221616,193887,
221585,193882,
221619,193882,
221606,193887,
221637,193874,
221621,193889,
221642,193875,
221625,193875,
221658,193883,
221637,193894,
221651,193884,
221649,193902,
221652,193883,
221661,193911,
221688,193868,
221661,193904,
221677,193874,
221680,193913,
221685,193870,
221667,193911,
221684,193882,
221677,193898,
221687,193893,
221695,193917,
221706,193904,
221711,193924,
221734,193903,
221711,193937,
221705,193896,
221698,193910,
221682,193873,
221634,193871,
221594,193803,
221533,193808,
221458,193742,
221422,193746,
221378,193692,
221354,193716,
221306,193668,
221291,193699,
221286,193652,
221279,193680,
221297,193648,
221296,193708,
221305,193659,
221332,193736,
221336,193668,
221356,193740,
221329,193672,
221370,193748,
221337,193673,
221364,193749,
221336,193696,
221378,193747,
221352,193691,
221405,193761,
221374,193693,
221425,193768,
221400,193699,
221439,193780,
221417,193700,
221457,193772,
221420,193703,
221455,193765,
221418,193705,
221447,193762,
221404,193705,
221436,193763,
221405,193684,
221456,193768,
221413,193703,
221472,193768,
221444,193708,
221503,193761,
221469,193726,
221513,193782,
221475,193716,
221533,193791,
221502,193722,
221575,193803,
221512,193725,
221592,193810,
221524,193743,
221604,193806,
221538,193741,
221605,193822,
221546,193735,
221618,193794,
221543,193735,
221642,193826,
221559,193749,
221649,193818,
221572,193743,
221648,193823,
221587,193740,
221646,193816,
221600,193748,
221670,193814,
221599,193750,
221659,193841,
221620,193753,
221681,193841,
221636,193753,
221707,193838,
221636,193774,
221699,193843,
221635,193768,
221726,193835,
221652,193763,
221730,193843,
221651,193761,
221750,193846,
221669,193775,
221751,193852,
221667,193780,
221765,193852,
221687,193804,
221786,193868,
221687,193800,
221802,193887,
221699,193795,
221783,193858,
221670,193776,
221725,193825,
221570,193742,
221620,193774,
221449,193649,
221512,193709,
221352,193597,
221371,193654,
221228,193531,
221320,193632,
221218,193534,
221316,193638,
221225,193542,
221339,193640,
221254,193555,
221371,193660,
221288,193590,
221397,193666,
221300,193579,
221391,193678,
221308,193585,
221398,193668,
221330,193591,
221421,193676,
221320,193589,
221433,193674,
221351,193601,
221451,193691,
221367,193592,
221447,193679,
221403,193605,
221493,193696,
221388,193617,
221491,193702,
221388,193609,
221502,193685,
221396,193614,
221492,193709,
221411,193613,
221506,193705,
221415,193610,
221527,193721,
221420,193613,
221543,193711,
221448,193628,
221559,193724,
221460,193643,
221592,193715,
221485,193638,
221601,193728,
221507,193649,
221630,193746,
221525,193655,
221644,193758,
221543,193649,
221635,193757,
221544,193676,
221645,193768,
221551,193661,
221668,193751,
221557,193670,
221683,193767,
221596,193674,
221689,193767,
221587,193684,
221697,193756,
221592,193675,
221702,193757,
221588,193687,
221710,193766,
221603,193675,
221726,193760,
221605,193692,
221729,193763,
221626,193695,
221753,193782,
221636,193706,
221779,193786,
221649,193729,
221793,193793,
221670,193727,
221793,193788,
221680,193721,
221811,193806,
221698,193745,
221819,193798,
221701,193741,
221835,193813,
221704,193750,
221820,193797,
221692,193736,
221773,193780,
221595,193677,
221667,193706,
221495,193627,
221548,193645,
221377,193568,
221426,193577,
221254,193515,
221355,193537,
221248,193477,
221357,193560,
221267,193500,
221388,193556,
221307,193527,
221416,193564,
221327,193518,
221453,193585,
221352,193543,
221468,193615,
221372,193557,
221476,193607,
221372,193553,
221481,193605,
221390,193558,
221507,193619,
221427,193582,
221514,193625,
221458,193562,
221533,193618,
221460,193583,
221556,193638,
221491,193589,
221572,193636,
221475,193584,
221552,193617,
221468,193580,
221557,193624,
221486,193587,
221570,193632,
221499,193595,
221573,193634,
221515,193598,
221599,193656,
221533,193606,
221623,193657,
221542,193620,
221628,193670,
221575,193616,
221648,193660,
221597,193625,
221669,193663,
221597,193648,
221699,193688,
221617,193648,
221713,193688,
221641,193656,
221723,193690,
221648,193645,
221714,193690,
221674,193662,
221753,193690,
221670,193655,
221745,193697,
221677,193667,
221759,193694,
221689,193682,
221768,193694,
221706,193671,
221779,193715,
221729,193691,
221784,193706,
221740,193722,
221813,193713,
221733,193705,
221840,193721,
221759,193727,
221847,193721,
221783,193725,
221843,193728,
221771,193723,
221835,193734,
221798,193732,
221851,193721,
221784,193710,
221815,193717,
221739,193668,
221750,193669,
221659,193632,
221639,193599,
221546,193585,
221596,193573,
221500,193561,
221543,193540,
221488,193530,
221530,193558,
221494,193555,
221561,193550,
221524,193571,
221586,193571,
221563,193576,
221606,193577,
221577,193582,
221619,193578,
221589,193592,
221628,193572,
221607,193586,
221633,193572,
221629,193596,
221651,193599,
221643,193609,
221663,193598,
221662,193607,
221687,193626,
221653,193637,
221673,193606,
221675,193631,
221682,193610,
221663,193632,
221664,193602,
221653,193607,
221658,193583,
221644,193637,
221666,193589,
221648,193626,
221680,193575,
221637,193613,
221669,193593,
221674,193631,
221685,193596,
221700,193650,
221713,193599,
221717,193642,
221715,193612,
221717,193642,
221727,193613,
221736,193665,
221755,193629,
221738,193657,
221767,193625,
221766,193670,
221760,193634,
221757,193681,
221760,193636,
221776,193683,
221775,193636,
221785,193689,
221779,193628,
221773,193683,
221770,193629,
221787,193686,
221779,193622,
221775,193684,
221764,193631,
221796,193694,
221761,193627,
221822,193697,
221790,193637,
221832,193705,
221786,193629,
221830,193703,
221801,193637,
221829,193700,
221774,193614,
221774,193662,
221717,193575,
221667,193620,
221601,193527,
221609,193569,
221542,193487,
221549,193549,
221531,193489,
221549,193551,
221540,193487,
221561,193552,
221533,193486,
221595,193558,
221569,193516,
221628,193557,
221610,193512,
221673,193588,
221631,193516,
221682,193590,
221617,193543,
221692,193587,
221651,193520,
221709,193602,
221658,193532,
221727,193619,
221675,193542,
221757,193635,
221665,193555,
221760,193636,
221657,193534,
221753,193624,
221668,193541,
221756,193614,
221669,193533,
221737,193622,
221663,193538,
221742,193627,
221667,193542,
221734,193626,
221662,193530,
221761,193617,
221700,193554,
221760,193623,
221699,193544,
221765,193631,
221726,193564,
221787,193650,
221728,193581,
221814,193649,
221741,193576,
221826,193654,
221752,193597,
221842,193649,
221750,193581,
221850,193661,
221757,193584,
221865,193661,
221763,193588,
221867,193680,
221768,193592,
221870,193668,
221766,193591,
221856,193655,
221780,193581,
221870,193649,
221784,193603,
221858,193670,
221791,193610,
221892,193685,
221795,193616,
221904,193694,
221805,193629,
221916,193698,
221807,193615,
221897,193684,
221755,193575,
221830,193646,
221680,193535,
221746,193589,
221592,193482,
221671,193548,
221539,193455,
221628,193540,
221524,193449,
221608,193518,
221526,193459,
221644,193531,
221569,193465,
221653,193526,
221599,193471,
221678,193556,
221600,193487,
221716,193554,
221615,193488,
221706,193546,
221608,193478,
221725,193574,
221632,193489,
COM4 disconnected!
