COM4 connected!
237192,218717,
237392,218803,
237565,218888,
237769,218988,
237890,219032,
238050,219100,
238130,219143,
238259,219186,
238304,219205,
238381,219246,
238419,219270,
238513,219307,
238525,219329,
238630,219347,
238666,219392,
238750,219426,
238791,219434,
238866,219450,
238871,219470,
238968,219509,
238967,219524,
239047,219556,
239086,219566,
239176,219602,
239187,219612,
239299,219649,
239337,219688,
239455,219715,
239520,219758,
239647,219806,
239719,219856,
239848,219920,
239945,219971,
240070,220023,
240194,220069,
240351,220162,
240490,220226,
240671,220282,
240780,220373,
240893,220403,
240888,220387,
240719,220277,
240204,220001,
239309,219527,
238063,218925,
236826,218364,
235829,217936,
235135,217606,
234627,217427,
234330,217274,
234177,217225,
234155,217183,
234165,217230,
234318,217285,
234504,217378,
234726,217491,
235006,217626,
235238,217721,
235489,217841,
235680,217918,
235853,217989,
235951,218053,
236057,218089,
236142,218116,
236239,218182,
236358,218222,
236519,218301,
236661,218339,
236769,218420,
236837,218420,
236830,218444,
236801,218403,
236694,218365,
236582,218299,
236415,218238,
236272,218128,
236129,218079,
236004,218021,
235934,218003,
235907,217968,
235917,218010,
235998,218015,
236099,218081,
236236,218129,
236397,218245,
236591,218300,
236813,218425,
237014,218494,
237243,218608,
237420,218684,
237609,218797,
237782,218852,
237957,218941,
238076,218997,
238188,219055,
238297,219072,
238394,219129,
238438,219130,
238526,219179,
238561,219193,
238601,219240,
238655,219230,
238710,219258,
238733,219266,
238784,219324,
238807,219297,
238879,219349,
238903,219338,
238963,219399,
239005,219397,
239086,219454,
239108,219444,
239224,219485,
239228,219490,
239314,219549,
239334,219531,
239426,219602,
239473,219597,
239564,219654,
239651,219668,
239753,219752,
239838,219745,
239966,219862,
240067,219873,
240224,219972,
240346,219999,
240495,220112,
240607,220121,
240701,220199,
240698,220148,
240542,220076,
240017,219780,
239177,219352,
237939,218727,
236728,218187,
235734,217742,
235067,217470,
234586,217238,
234303,217143,
234113,217013,
234065,217046,
234085,217043,
234235,217129,
234392,217169,
234651,217328,
234847,217395,
235137,217537,
235318,217591,
235481,217709,
235561,217708,
235682,217767,
235699,217745,
235793,217808,
235800,217799,
235916,217880,
235995,217899,
236138,217980,
236174,217964,
236249,218031,
236207,217984,
236205,217995,
236070,217874,
235976,217872,
235784,217770,
235704,217728,
235519,217604,
235415,217611,
235292,217528,
235292,217547,
235252,217503,
235354,217567,
235384,217571,
235568,217677,
235673,217703,
235879,217811,
235996,217858,
236229,218005,
236379,218015,
236585,218154,
236703,218177,
236883,218283,
236964,218298,
237109,218381,
237154,218380,
237272,218447,
237306,218438,
237395,218505,
237404,218476,
237468,218536,
237440,218494,
237510,218545,
237497,218504,
237548,218568,
237533,218538,
237615,218585,
237595,218570,
237699,218636,
237726,218595,
237821,218691,
237834,218667,
237931,218720,
237958,218727,
238050,218791,
238078,218771,
238180,218836,
238226,218826,
238334,218920,
238373,218929,
238496,219004,
238587,219023,
238736,219103,
238808,219111,
239003,219231,
239106,219257,
239293,219361,
239366,219384,
239539,219486,
239533,219459,
239501,219445,
239113,219185,
238460,218866,
237383,218309,
236331,217854,
235366,217423,
234736,217152,
234178,216875,
233887,216782,
233611,216618,
233541,216626,
233473,216574,
233593,216646,
233651,216666,
233871,216785,
234027,216835,
234295,216992,
234480,217022,
234746,217174,
234891,217209,
235081,217331,
235137,217332,
235285,217411,
235322,217394,
235474,217488,
235570,217498,
235743,217615,
235807,217613,
235946,217696,
235935,217664,
235966,217705,
235854,217610,
235810,217605,
235611,217499,
235525,217459,
235315,217352,
235242,217338,
235080,217236,
235064,217250,
235022,217208,
235081,217275,
235119,217258,
235282,217380,
235395,217395,
235635,217537,
235776,217562,
236034,217716,
236185,217743,
236463,217913,
236597,217937,
236828,218084,
236946,218099,
237174,218223,
237249,218237,
237416,218359,
237436,218316,
237596,218431,
237600,218402,
237715,218477,
237740,218429,
237830,218517,
237819,218492,
237900,218564,
237878,218517,
237960,218578,
237950,218539,
238048,218622,
238034,218587,
238162,218659,
238183,218657,
238318,218744,
238346,218722,
238480,218813,
238495,218789,
238620,218882,
238637,218860,
238762,218952,
238798,218922,
238934,219024,
238950,218994,
239145,219111,
239202,219118,
239379,219238,
239475,219253,
239664,219367,
239759,219373,
239925,219474,
239941,219458,
239936,219460,
239573,219233,
238955,218939,
237836,218353,
236726,217851,
235631,217362,
234940,217083,
234339,216790,
234000,216658,
233730,216513,
233666,216508,
233587,216471,
233708,216556,
233780,216570,
234067,216710,
234245,216757,
234549,216935,
234754,217019,
235060,217166,
235240,217220,
235467,217332,
235541,217361,
235727,217453,
235745,217457,
235926,217532,
236000,217571,
236260,217675,
236338,217729,
236564,217828,
236582,217822,
236695,217865,
236592,217816,
236581,217822,
236429,217729,
236390,217712,
236225,217633,
236195,217628,
236072,217579,
236153,217593,
236111,217588,
236289,217650,
236368,217718,
236629,217828,
236778,217876,
237111,218069,
237370,218177,
237777,218375,
238097,218519,
238532,218731,
238822,218846,
239218,219046,
239464,219152,
239772,219325,
239971,219398,
240237,219521,
240350,219580,
240563,219683,
240638,219711,
240771,219758,
240756,219757,
240888,219826,
240880,219797,
240984,219858,
240980,219841,
241079,219904,
241056,219872,
241134,219915,
241135,219901,
241214,219948,
241213,219953,
241295,220000,
241293,219992,
241399,220047,
241395,220047,
241509,220097,
241517,220093,
241613,220153,
241646,220157,
241785,220229,
241837,220245,
241956,220316,
242010,220342,
242159,220431,
242237,220432,
242383,220510,
242457,220546,
242601,220623,
242612,220611,
242608,220604,
242328,220438,
241831,220177,
240987,219714,
239841,219141,
238190,218358,
236844,217774,
235951,217400,
235475,217224,
235108,217069,
235056,217049,
235042,217049,
235196,217146,
235379,217196,
235693,217382,
235983,217489,
236337,217683,
236655,217790,
237006,217979,
237257,218066,
237530,218215,
237676,218264,
237866,218355,
237960,218382,
238134,218471,
238274,218535,
238474,218627,
238585,218657,
238741,218747,
238772,218739,
238788,218764,
238703,218711,
238657,218679,
238486,218589,
238390,218518,
238205,218438,
238097,218386,
237950,218345,
237928,218334,
237882,218315,
237973,218352,
238030,218394,
238220,218478,
238372,218567,
238642,218693,
238872,218792,
239192,218943,
239419,219056,
239720,219194,
239939,219297,
240209,219424,
240374,219494,
240579,219606,
240733,219685,
240906,219746,
241017,219802,
241158,219862,
241214,219906,
241336,219949,
241364,219974,
241456,219991,
241472,220018,
241570,220054,
241585,220073,
241689,220092,
241706,220125,
241785,220133,
241843,220182,
241954,220227,
241980,220259,
242089,220289,
242158,220328,
242254,220366,
242310,220406,
242412,220430,
242473,220463,
242584,220510,
242614,220564,
242711,220593,
242765,220618,
242901,220676,
242960,220712,
243093,220766,
243176,220835,
243301,220883,
243400,220929,
243529,220969,
243605,221020,
243681,221048,
243665,221040,
243552,220945,
243136,220722,
242486,220390,
241599,219947,
240500,219357,
238932,218636,
237513,218002,
236659,217692,
236235,217497,
235999,217411,
235998,217407,
236077,217467,
236286,217557,
236560,217691,
236896,217862,
237293,218048,
237683,218225,
238056,218389,
238407,218531,
238695,218688,
238938,218769,
239109,218853,
239235,218915,
239354,218968,
239496,219026,
239622,219098,
239766,219140,
239922,219232,
240029,219257,
240080,219292,
240079,219259,
240007,219255,
239920,219170,
239792,219112,
239610,219022,
239440,218950,
239280,218856,
239151,218812,
239066,218767,
239045,218771,
239087,218781,
239180,218853,
239351,218902,
239541,219015,
239776,219096,
240004,219249,
240254,219342,
240499,219468,
240738,219573,
240937,219687,
241151,219764,
241322,219855,
241502,219921,
241639,219996,
241729,220049,
241816,220090,
241911,220123,
241965,220159,
242027,220172,
242069,220211,
242109,220197,
242140,220235,
242183,220237,
242232,220284,
242269,220294,
242341,220337,
242364,220307,
242438,220373,
242473,220365,
242534,220420,
242589,220444,
242686,220506,
242768,220498,
242845,220593,
242933,220581,
242991,220648,
243058,220661,
243154,220715,
243222,220732,
243307,220811,
243386,220818,
243475,220891,
243543,220902,
243672,220960,
243731,220991,
243834,221048,
243901,221053,
244014,221125,
244046,221107,
244026,221135,
243826,220990,
243413,220780,
242685,220388,
241820,219980,
240706,219366,
239177,218672,
237726,218024,
236934,217743,
236467,217534,
236272,217499,
236231,217448,
236338,217556,
236532,217605,
236813,217787,
237127,217903,
237511,218082,
237836,218208,
238208,218391,
238460,218495,
238740,218633,
238878,218680,
239001,218746,
239088,218760,
239194,218828,
239288,218840,
239462,218951,
239547,218960,
239667,219036,
239676,219027,
239706,219029,
239609,218959,
239519,218955,
239306,218822,
239165,218777,
238930,218623,
238733,218572,
238495,218427,
238383,218381,
238224,218307,
238224,218348,
238212,218322,
238339,218407,
238460,218444,
238683,218562,
238819,218630,
239105,218746,
239255,218826,
239551,218964,
239731,219027,
239955,219168,
240135,219207,
240332,219327,
240438,219338,
240593,219444,
240662,219457,
240776,219534,
240830,219522,
240955,219611,
240976,219595,
241069,219675,
241074,219639,
241164,219704,
241156,219652,
241219,219730,
241205,219679,
241291,219745,
241275,219712,
241336,219782,
241339,219745,
241464,219821,
241479,219813,
241587,219903,
241610,219875,
241759,219951,
241793,219944,
241914,220033,
241938,220012,
242046,220099,
242077,220086,
242214,220179,
242272,220185,
242405,220255,
242465,220274,
242623,220375,
242705,220368,
242880,220488,
242928,220487,
243067,220581,
243064,220549,
243053,220528,
242740,220363,
242238,220109,
241338,219613,
240192,219066,
238631,218327,
237441,217855,
236618,217481,
236162,217338,
235838,217179,
235773,217171,
235730,217143,
235900,217259,
236018,217303,
236320,217464,
236571,217541,
236947,217741,
237236,217840,
237579,218013,
237799,218083,
238088,218253,
238199,218257,
238371,218359,
238447,218373,
238625,218464,
238707,218490,
238906,218626,
238992,218623,
239155,218727,
239150,218680,
239180,218726,
239093,218644,
239023,218619,
238831,218506,
238731,218473,
238497,218331,
238370,218307,
238172,218202,
238120,218197,
238048,218156,
238130,218213,
238157,218212,
238365,218332,
238488,218357,
238743,218514,
238899,218568,
239199,218704,
239372,218784,
239650,218926,
239821,218962,
240066,219128,
240225,219156,
240468,219287,
240579,219315,
240767,219446,
240835,219434,
240992,219517,
241029,219523,
241168,219619,
241195,219585,
241289,219674,
241310,219648,
241392,219717,
241407,219676,
241502,219759,
241483,219705,
241578,219782,
241571,219760,
241694,219844,
241687,219816,
241810,219883,
241828,219874,
241936,219939,
241942,219921,
242050,220014,
242084,219980,
242182,220071,
242206,220052,
242344,220141,
242347,220127,
242492,220208,
242522,220201,
242665,220287,
242686,220279,
242852,220389,
242903,220393,
243077,220498,
243123,220485,
243283,220588,
243270,220530,
243230,220538,
242902,220317,
242377,220086,
241486,219589,
240364,219048,
238774,218278,
237547,217804,
236714,217432,
236272,217305,
235936,217118,
235923,217166,
235892,217129,
236078,217247,
236212,217293,
236542,217457,
236825,217561,
237231,217764,
237519,217883,
237924,218088,
238140,218161,
238433,218302,
238575,218335,
238775,218451,
238818,218444,
239002,218577,
239078,218573,
239279,218677,
239345,218689,
239521,218786,
239517,218761,
239592,218797,
239491,218740,
239444,218737,
239245,218610,
239095,218546,
238823,218401,
238672,218372,
238445,218228,
238384,218222,
238297,218177,
238367,218227,
238363,218211,
238552,218319,
238646,218366,
238900,218486,
239055,218534,
239370,218706,
239556,218781,
239864,218931,
240052,219004,
240340,219145,
240483,219189,
240718,219323,
240801,219343,
241005,219452,
241088,219460,
241243,219531,
241277,219543,
241397,219624,
241398,219614,
241515,219655,
241504,219648,
241606,219693,
241574,219686,
241656,219730,
241645,219710,
241737,219754,
241710,219734,
241821,219786,
241805,219776,
241897,219826,
241908,219817,
242002,219881,
242023,219864,
242116,219931,
242124,219921,
242229,219969,
242246,219969,
242361,220053,
242382,220031,
242520,220110,
242559,220122,
242731,220196,
242788,220226,
242946,220303,
243009,220345,
243176,220429,
243231,220447,
243338,220488,
243234,220425,
243108,220347,
242620,220068,
241947,219740,
240897,219221,
239589,218581,
238099,217932,
237182,217570,
236569,217315,
236257,217193,
236063,217112,
236094,217151,
236146,217168,
236353,217280,
236593,217365,
236933,217548,
237237,217662,
237621,217867,
237923,217972,
238254,218121,
238485,218228,
238734,218362,
238876,218383,
239040,218472,
239145,218513,
239332,218614,
239436,218652,
239596,218731,
239701,218746,
239777,218789,
239734,218760,
239682,218733,
239510,218654,
239366,218583,
239126,218448,
238916,218344,
238656,218244,
238506,218175,
238309,218087,
238272,218084,
238214,218055,
238302,218101,
238389,218151,
238580,218235,
238747,218305,
238996,218421,
239218,218506,
239472,218646,
239702,218758,
239971,218861,
240164,218943,
240418,219069,
240573,219149,
240760,219231,
240872,219295,
241034,219332,
241111,219371,
241228,219439,
241299,219467,
241388,219505,
241428,219535,
241506,219567,
241546,219575,
241595,219611,
241634,219607,
241704,219623,
241714,219655,
241782,219691,
241783,219704,
241852,219714,
241895,219726,
241944,219759,
241993,219777,
242070,219806,
242122,219844,
242203,219865,
242246,219897,
242345,219936,
242419,219985,
242520,220019,
242604,220072,
242732,220125,
242832,220172,
242950,220242,
243073,220279,
243209,220334,
243300,220416,
243394,220421,
243313,220394,
243124,220256,
242626,219991,
241879,219634,
240843,219099,
239479,218429,
238056,217843,
237172,217487,
236649,217279,
236370,217163,
236225,217119,
236267,217141,
236376,217178,
236574,217284,
236863,217420,
237158,217564,
237527,217727,
237896,217888,
238246,218060,
238560,218194,
238819,218328,
239020,218394,
239231,218464,
239393,218549,
239551,218638,
239756,218715,
239936,218813,
240092,218861,
240212,218920,
240262,218933,
240277,218928,
240199,218878,
240083,218833,
239911,218735,
239718,218650,
239508,218528,
239266,218457,
239092,218336,
238979,218326,
238940,218283,
238944,218314,
239009,218328,
239142,218396,
239312,218459,
239539,218587,
239791,218686,
240062,218823,
240311,218941,
240618,219087,
240844,219186,
241098,219322,
241294,219383,
241506,219489,
241623,219537,
241756,219622,
241871,219656,
241939,219706,
242005,219708,
242102,219761,
242122,219767,
242191,219799,
242218,219790,
242271,219845,
242314,219847,
242388,219890,
242424,219912,
242494,219947,
242573,219965,
242610,220007,
242679,220014,
242769,220063,
242827,220088,
242905,220142,
242947,220149,
243043,220213,
243090,220206,
243206,220279,
243270,220301,
243386,220368,
243477,220379,
243578,220450,
243668,220481,
243786,220571,
243869,220578,
244001,220672,
244060,220669,
244167,220735,
244127,220695,
244048,220659,
243698,220450,
243140,220180,
242343,219752,
241406,219317,
240144,218651,
238752,218092,
237738,217632,
237222,217478,
236888,217328,
236805,217321,
236812,217317,
236955,217407,
237153,217475,
237462,217639,
237761,217754,
238125,217953,
238444,218067,
238802,218259,
239072,218337,
239331,218479,
239527,218531,
239738,218668,
239854,218698,
240070,218801,
240219,218858,
240445,218960,
240570,218998,
240743,219093,
240745,219086,
240795,219120,
240718,219045,
240670,219038,
240477,218927,
240352,218887,
240118,218740,
239947,218692,
239754,218565,
239653,218556,
239546,218495,
239607,218550,
239643,218536,
239823,218653,
239922,218669,
240171,218804,
240329,218861,
240606,218995,
240780,219062,
241042,219228,
241222,219281,
241492,219439,
241629,219465,
241839,219589,
241938,219593,
242103,219708,
242176,219719,
242316,219790,
242354,219794,
242451,219852,
242448,219824,
242529,219894,
242513,219854,
242597,219929,
242562,219864,
242634,219924,
242639,219912,
242715,219975,
242719,219943,
242809,220020,
242811,219992,
242925,220041,
242914,220038,
243006,220104,
243018,220073,
243123,220144,
243123,220151,
243242,220210,
243274,220220,
243416,220282,
243450,220270,
243605,220383,
243644,220393,
243809,220481,
243843,220488,
243990,220579,
244010,220539,
244057,220579,
243859,220458,
243564,220316,
242906,219959,
242170,219597,
241136,219062,
239937,218523,
238585,217910,
237763,217602,
237248,217386,
237044,217334,
236905,217254,
237000,217339,
237095,217355,
237398,217532,
237631,217618,
238012,217816,
238303,217918,
238699,218118,
238980,218219,
239318,218402,
239511,218437,
239743,218594,
239871,218613,
240107,218726,
240212,218771,
240448,218900,
240546,218913,
240747,219021,
240782,219012,
240851,219069,
240769,219006,
240742,219019,
240565,218887,
240436,218852,
240189,218693,
240024,218631,
239772,218500,
239664,218483,
239517,218384,
239513,218430,
239485,218396,
239636,218487,
239718,218493,
239937,218631,
240097,218673,
240364,218819,
240530,218875,
240808,219018,
240936,219077,
241205,219209,
241328,219235,
241560,219368,
241654,219382,
241839,219509,
241906,219504,
242038,219594,
242063,219574,
242183,219660,
242185,219628,
242308,219691,
242265,219659,
242367,219725,
242330,219677,
242417,219765,
242392,219684,
242471,219776,
242443,219712,
242545,219806,
242531,219751,
242618,219829,
242613,219793,
242716,219863,
242689,219854,
242796,219919,
242806,219892,
242910,219965,
242940,219931,
243059,220032,
243077,220019,
243231,220101,
243240,220103,
243416,220214,
243452,220196,
243623,220307,
243661,220309,
243824,220393,
243826,220369,
243859,220403,
243618,220262,
243289,220106,
242549,219698,
241735,219316,
240519,218695,
239184,218100,
237973,217590,
237351,217351,
236858,217132,
236706,217106,
236563,217029,
236651,217102,
236730,217116,
236985,217260,
237163,217302,
237528,217495,
237754,217583,
238130,217780,
238359,217844,
238641,217980,
238804,218057,
239013,218143,
239062,218154,
239228,218248,
239275,218242,
239475,218351,
239534,218366,
239740,218462,
239760,218443,
239885,218528,
239845,218483,
239840,218489,
239698,218402,
239637,218372,
239439,218286,
239337,218243,
239120,218141,
239065,218113,
238920,218048,
238931,218079,
238902,218052,
239037,218125,
239122,218152,
239317,218259,
239445,218323,
239697,218435,
239875,218502,
240152,218636,
240307,218665,
240561,218818,
240699,218867,
240929,218989,
241036,219006,
241200,219103,
241278,219123,
241425,219221,
241486,219204,
241612,219273,
241621,219281,
241728,219342,
241732,219325,
241815,219366,
241806,219343,
241866,219387,
241823,219371,
241892,219400,
241872,219396,
241936,219436,
241925,219427,
242011,219451,
242001,219447,
242121,219496,
242096,219473,
242183,219537,
242183,219520,
242277,219582,
242300,219555,
242370,219613,
242369,219607,
242468,219643,
242487,219639,
242561,219689,
242589,219692,
242662,219758,
242694,219750,
242815,219808,
242874,219833,
242983,219901,
243022,219895,
243104,219946,
243080,219914,
242991,219865,
242615,219645,
242041,219371,
241101,218884,
239825,218280,
238379,217664,
237400,217245,
236704,216976,
236307,216810,
236008,216677,
235898,216648,
235848,216626,
235976,216675,
236099,216736,
236324,216850,
236567,216952,
236879,217087,
237135,217203,
237436,217333,
237634,217417,
237874,217511,
237969,217546,
238115,217615,
238150,217627,
238268,217683,
238363,217724,
238527,217799,
238635,217859,
238778,217920,
238829,217940,
238908,217964,
238875,217941,
238848,217931,
238753,217891,
238721,217849,
238553,217812,
238521,217765,
238382,217722,
238349,217696,
238321,217690,
238376,217707,
238423,217749,
238540,217795,
238672,217845,
238885,217931,
239053,218022,
239303,218125,
239495,218227,
239771,218340,
239959,218421,
240208,218532,
240388,218625,
240582,218702,
240734,218775,
240914,218839,
241020,218884,
241122,218950,
241223,219000,
241329,219033,
241403,219076,
241494,219116,
241540,219138,
241611,219151,
241656,219200,
241712,219209,
241745,219239,
241816,219253,
241859,219291,
241908,219290,
241965,219313,
242024,219350,
242092,219378,
242150,219394,
242210,219432,
242301,219466,
242382,219515,
242465,219528,
242554,219600,
242612,219603,
242706,219666,
242779,219693,
242858,219733,
242930,219763,
243039,219827,
243118,219849,
243204,219901,
243293,219924,
243400,219993,
243505,220034,
243624,220095,
243701,220106,
243744,220148,
243706,220108,
243487,220006,
242977,219707,
242249,219373,
241382,218930,
240272,218397,
238833,217740,
237720,217295,
237084,217019,
236712,216881,
236520,216779,
236444,216775,
236477,216786,
236624,216874,
236817,216959,
237066,217072,
237356,217174,
237665,217340,
237951,217438,
238218,217603,
238423,217654,
238579,217739,
238693,217777,
238796,217813,
238848,217839,
238922,217882,
239014,217913,
239158,217988,
239272,218017,
239391,218099,
239443,218090,
239521,218151,
239517,218118,
239536,218144,
239448,218094,
239409,218068,
239301,217987,
239223,217990,
239122,217919,
239110,217952,
239077,217910,
239143,217988,
239182,217954,
239311,218053,
239464,218088,
239667,218206,
239847,218264,
240104,218400,
240294,218464,
240540,218607,
240721,218661,
240934,218784,
241099,218827,
241291,218940,
241411,218964,
241575,219069,
241666,219074,
241776,219141,
241821,219153,
241920,219239,
241964,219221,
242030,219269,
242049,219255,
242133,219291,
242131,219277,
242210,219355,
242210,219326,
242301,219383,
242314,219378,
242414,219450,
242443,219431,
242554,219502,
242566,219485,
242676,219551,
242685,219541,
242805,219613,
242843,219597,
242950,219702,
242954,219669,
243097,219745,
243120,219733,
243248,219825,
243288,219816,
243407,219911,
243470,219900,
243607,219991,
243674,219981,
243818,220106,
243890,220094,
244010,220201,
244054,220191,
244173,220243,
244090,220184,
243952,220125,
243477,219848,
242780,219540,
241906,219070,
241043,218704,
239838,218106,
238675,217601,
237744,217185,
237309,217044,
237045,216928,
237026,216945,
237015,216918,
237159,217039,
237341,217075,
237670,217237,
237910,217330,
238275,217519,
238531,217589,
238876,217774,
239051,217830,
239267,217949,
239342,217951,
239507,218023,
239551,218019,
239684,218138,
239777,218135,
239959,218245,
240033,218258,
240210,218354,
240238,218328,
240332,218403,
240291,218345,
240308,218382,
240197,218317,
240179,218312,
240027,218213,
239971,218229,
239827,218137,
239845,218177,
239817,218118,
239889,218186,
239907,218161,
240068,218291,
240169,218286,
240380,218417,
240543,218448,
240779,218590,
240946,218659,
241212,218785,
241354,218837,
241578,218954,
241708,219002,
241893,219122,
241984,219130,
242149,219227,
242226,219233,
242350,219323,
242392,219314,
242504,219398,
242539,219379,
242640,219457,
242638,219438,
242752,219501,
242763,219480,
242876,219572,
242871,219542,
242973,219629,
242974,219588,
243108,219670,
243131,219654,
243242,219737,
243257,219720,
243379,219814,
243412,219783,
243525,219876,
243555,219838,
243659,219943,
243693,219907,
243822,220010,
243848,219994,
243987,220082,
244014,220069,
244142,220171,
244178,220131,
244319,220238,
244361,220221,
244514,220339,
244531,220297,
244670,220414,
244686,220371,
244773,220457,
244686,220358,
244549,220316,
244073,220032,
243393,219738,
242460,219258,
241659,218900,
240650,218385,
239664,217973,
238657,217494,
238097,217307,
237765,217143,
237774,217189,
237795,217185,
238022,217327,
238201,217369,
238550,217566,
238831,217659,
239242,217866,
239506,217955,
239856,218121,
240054,218200,
240315,218341,
240390,218343,
240583,218439,
240629,218437,
240800,218518,
240883,218566,
241089,218671,
241159,218700,
241323,218773,
241312,218734,
241410,218805,
241337,218771,
241324,218759,
241169,218666,
241144,218670,
240964,218585,
240938,218547,
240764,218477,
240807,218498,
240737,218477,
240834,218518,
240858,218530,
241032,218613,
241130,218648,
241345,218766,
241457,218803,
241702,218931,
241844,218976,
242091,219094,
242193,219138,
242396,219254,
242467,219281,
242652,219355,
242705,219378,
242854,219472,
242884,219464,
243010,219525,
243023,219524,
243137,219602,
243144,219587,
243243,219636,
243242,219625,
243328,219695,
243327,219653,
243403,219720,
243398,219709,
243512,219764,
243505,219749,
243582,219794,
243614,219786,
243705,219854,
243708,219842,
243780,219888,
243800,219903,
243869,219936,
243891,219933,
243974,219982,
243979,219971,
244050,220014,
244054,220012,
244139,220055,
244140,220048,
244234,220103,
244271,220109,
244403,220162,
244417,220159,
244518,220229,
244560,220247,
244632,220290,
244614,220277,
244602,220271,
244399,220138,
244019,219949,
243309,219567,
242485,219207,
241608,218757,
240634,218308,
239545,217801,
238614,217419,
237963,217139,
237716,217054,
237593,216998,
237669,217033,
237744,217077,
237962,217182,
238172,217270,
238479,217418,
238730,217509,
239028,217642,
239220,217732,
239453,217841,
239608,217870,
239742,217978,
239813,217973,
239932,218046,
240006,218080,
240175,218143,
240266,218198,
240423,218259,
240480,218282,
240560,218317,
240546,218304,
240557,218294,
240474,218253,
240414,218254,
240304,218191,
240231,218150,
240109,218084,
240063,218062,
240011,218055,
240059,218082,
240086,218087,
240212,218150,
240318,218199,
240493,218267,
240664,218356,
240867,218444,
241041,218534,
241276,218628,
241467,218733,
241665,218806,
241827,218903,
242007,218972,
242125,219019,
242253,219074,
242337,219113,
242454,219163,
242527,219199,
242632,219242,
242681,219271,
242780,219322,
242828,219351,
242900,219358,
242930,219397,
242999,219421,
243046,219438,
243110,219482,
243146,219513,
243199,219519,
243235,219550,
243298,219570,
243336,219596,
243405,219612,
243454,219659,
243528,219673,
243600,219715,
243683,219752,
243748,219811,
243825,219822,
243895,219866,
243972,219882,
244052,219927,
244123,219958,
244193,220005,
244275,220021,
244357,220066,
244435,220102,
244501,220146,
244583,220184,
244661,220220,
244723,220224,
244800,220280,
244792,220252,
244762,220244,
244539,220101,
244118,219896,
243368,219523,
242553,219137,
241706,218720,
240813,218289,
239839,217843,
238977,217489,
238404,217218,
238150,217156,
238105,217122,
238201,217186,
238378,217251,
238641,217391,
238926,217500,
239262,217661,
239577,217802,
239893,217954,
240129,218050,
240373,218159,
240527,218205,
240662,218278,
240754,218301,
240857,218385,
240999,218401,
241147,218513,
241251,218527,
241360,218610,
241432,218598,
241444,218646,
241423,218600,
241379,218598,
241272,218529,
241166,218514,
241052,218413,
240973,218393,
240823,218321,
240789,218312,
240745,218263,
240769,218316,
240819,218308,
240925,218396,
241029,218415,
241213,218532,
241381,218569,
241599,218690,
241738,218739,
241932,218852,
242090,218908,
242285,219016,
242413,219044,
242584,219154,
242665,219163,
242788,219237,
242834,219244,
242948,219330,
242973,219306,
243072,219390,
243107,219371,
243195,219451,
243196,219423,
243296,219505,
243307,219474,
243387,219538,
243379,219512,
243462,219579,
243469,219529,
243536,219610,
243537,219584,
243643,219648,
243644,219616,
243730,219691,
243750,219687,
243865,219758,
243858,219713,
243971,219823,
243975,219781,
244056,219866,
244063,219848,
244177,219905,
244200,219879,
244299,219970,
244336,219961,
244444,220050,
244501,220032,
244630,220122,
244684,220107,
244792,220206,
244822,220195,
244903,220265,
244888,220192,
244836,220198,
244512,220004,
244008,219779,
243198,219333,
242435,218994,
241530,218521,
240674,218158,
239743,217707,
239071,217430,
238602,217212,
238485,217218,
238475,217195,
238672,217306,
238838,217358,
239177,217551,
239478,217655,
239880,217856,
240140,217956,
240489,218130,
240663,218202,
240950,218334,
241061,218360,
241252,218493,
241355,218493,
241542,218609,
241624,218628,
241801,218735,
241841,218724,
241953,218805,
241898,218743,
241911,218776,
241751,218667,
241687,218649,
241486,218523,
241334,218486,
241093,218337,
241006,218322,
240818,218205,
240774,218221,
240712,218155,
240804,218235,
240823,218219,
241008,218311,
241090,218337,
241297,218463,
241436,218515,
241658,218646,
241780,218666,
242025,218792,
242091,218815,
242287,218925,
242349,218923,
242519,219033,
242543,219031,
242685,219104,
242706,219084,
242851,219171,
242865,219163,
242976,219237,
242993,219223,
243101,219303,
243080,219261,
243181,219344,
243180,219304,
243263,219386,
243239,219339,
243345,219414,
243303,219374,
243400,219451,
243406,219424,
243535,219504,
243519,219467,
243689,219595,
243726,219572,
243898,219697,
243970,219694,
244146,219802,
244208,219802,
244340,219907,
244391,219889,
244498,219978,
244428,219911,
244366,219887,
243993,219660,
243484,219443,
242754,219043,
242143,218778,
241363,218354,
240631,218053,
239842,217666,
239375,217510,
239075,217354,
239102,217400,
239143,217388,
239414,217551,
239637,217638,
240040,217876,
240349,217966,
240771,218197,
241057,218284,
241394,218479,
241599,218555,
241925,218725,
242086,218775,
242372,218950,
242512,218987,
242779,219109,
242844,219149,
242996,219236,
242980,219191,
243018,219233,
242882,219157,
242850,219140,
242644,219018,
242580,218996,
242334,218874,
242268,218841,
242037,218737,
241999,218711,
241862,218646,
241947,218681,
241919,218668,
242086,218769,
242178,218810,
242388,218909,
242528,218966,
242760,219080,
242878,219132,
243130,219257,
243233,219301,
243432,219417,
243510,219433,
243692,219541,
243735,219562,
243899,219637,
243939,219656,
244075,219697,
244086,219707,
244199,219776,
244212,219759,
244303,219804,
244266,219810,
244370,219861,
244348,219827,
244428,219903,
244403,219863,
244496,219919,
244485,219890,
244572,219946,
244560,219931,
244675,220013,
244709,220014,
244808,220089,
244867,220098,
244991,220155,
245029,220189,
245149,220231,
245119,220220,
245094,220211,
244853,220062,
244476,219867,
243803,219523,
243131,219215,
242416,218844,
241788,218533,
240991,218161,
240310,217883,
239809,217635,
239657,217592,
239622,217591,
239831,217703,
240032,217783,
240403,217981,
240741,218131,
241159,218317,
241508,218476,
241854,218635,
242094,218735,
242364,218892,
242541,218948,
242764,219065,
242907,219131,
243114,219240,
243257,219283,
243397,219360,
243430,219387,
243500,219409,
243440,219374,
243411,219345,
243270,219276,
243162,219225,
242968,219145,
242871,219082,
242699,218997,
242613,218958,
242500,218914,
242536,218936,
242519,218918,
242626,218962,
242693,219018,
242856,219085,
242971,219166,
243179,219230,
243318,219309,
243513,219394,
243645,219487,
243823,219567,
243945,219634,
244105,219696,
244211,219750,
244364,219795,
244447,219850,
244558,219904,
244606,219937,
244701,219981,
244755,219983,
244829,220028,
244845,220035,
244912,220051,
244910,220073,
244968,220093,
244974,220099,
245015,220115,
245031,220145,
245110,220167,
245143,220188,
245222,220210,
245291,220248,
245381,220297,
245420,220323,
245494,220356,
245538,220378,
245526,220371,
245439,220312,
245167,220155,
244694,219921,
243992,219568,
243226,219205,
242539,218861,
241807,218504,
241058,218137,
240337,217853,
239887,217639,
239732,217603,
239767,217606,
239890,217691,
240156,217798,
240460,217964,
240809,218082,
241137,218268,
241463,218387,
241752,218555,
241997,218637,
242164,218740,
242332,218779,
242463,218859,
242595,218917,
242737,218990,
242867,219042,
242964,219094,
243028,219111,
243052,219127,
243025,219094,
242967,219088,
242859,219019,
242747,218966,
242576,218861,
242442,218815,
242286,218709,
242144,218672,
242031,218586,
241988,218610,
242003,218571,
242062,218643,
242147,218668,
242291,218781,
242413,218804,
242615,218918,
242770,218966,
242964,219096,
243104,219132,
243269,219244,
243380,219271,
243534,219340,
243604,219359,
243712,219456,
243783,219447,
243868,219524,
243882,219495,
243974,219567,
243989,219557,
244060,219605,
244078,219589,
244117,219642,
244120,219610,
244188,219669,
244193,219640,
244248,219672,
244262,219672,
244345,219728,
244362,219729,
244449,219792,
244503,219789,
244609,219859,
244654,219868,
244781,219948,
244819,219943,
244872,219987,
244754,219900,
244506,219791,
243966,219468,
243331,219172,
242592,218775,
241807,218420,
240792,217914,
239878,217537,
239215,217222,
238936,217133,
238780,217070,
238841,217135,
238918,217151,
239160,217284,
239367,217359,
239708,217524,
239967,217634,
240305,217831,
240531,217880,
240804,218031,
240922,218049,
241112,218163,
241190,218171,
241345,218265,
241409,218273,
241584,218387,
241671,218408,
241821,218490,
241868,218472,
241907,218534,
241857,218457,
241819,218461,
241657,218369,
241558,218335,
241351,218209,
241236,218186,
241056,218061,
240999,218077,
240891,218005,
240930,218046,
240928,218021,
241066,218108,
241129,218118,
241348,218257,
241453,218274,
241700,218405,
241813,218451,
242059,218573,
242178,218590,
242373,218722,
242459,218741,
242620,218841,
242693,218844,
242826,218935,
242842,218924,
242951,218992,
242937,218956,
243029,219022,
243003,218990,
243098,219052,
243057,219019,
243133,219086,
243101,219033,
243161,219091,
243131,219046,
243206,219117,
243190,219080,
243306,219167,
243305,219122,
243444,219229,
243482,219212,
243623,219305,
243668,219309,
243811,219404,
243799,219360,
243796,219380,
243510,219194,
243132,219029,
242467,218659,
241725,218273,
240561,217710,
239520,217274,
238697,216888,
238251,216731,
237917,216559,
237836,216566,
237759,216517,
237894,216612,
237972,216625,
238220,216779,
238424,216843,
238730,216989,
238940,217064,
239219,217234,
239340,217257,
239562,217372,
239606,217366,
239750,217458,
239793,217450,
239975,217555,
240059,217549,
240253,217682,
240345,217677,
240504,217795,
240511,217752,
240580,217809,
240462,217717,
240456,217751,
240287,217623,
240190,217615,
240005,217492,
239916,217489,
239776,217385,
239766,217422,
239733,217373,
239833,217460,
239875,217430,
240079,217572,
240200,217600,
240436,217750,
240573,217772,
240831,217910,
240953,217965,
241212,218106,
241349,218135,
241575,218261,
241673,218284,
241864,218408,
241936,218403,
242117,218526,
242138,218486,
242275,218588,
242296,218585,
242425,218646,
242414,218622,
242521,218703,
242511,218662,
242621,218718,
242587,218720,
242703,218785,
242693,218737,
242812,218829,
242812,218807,
242944,218887,
242974,218894,
243111,218975,
243144,218986,
243310,219075,
243346,219087,
243512,219156,
243492,219126,
243474,219145,
243193,218953,
242774,218774,
242080,218396,
241238,217969,
240033,217387,
239056,216952,
238299,216608,
237922,216485,
237599,216362,
237553,216346,
237502,216309,
237654,216403,
237785,216454,
238064,216588,
238275,216673,
238591,216821,
238792,216917,
239085,217055,
239224,217099,
239403,217198,
239448,217212,
239586,217276,
239634,217277,
239799,217363,
239928,217416,
240138,217533,
240242,217581,
240443,217661,
240471,217673,
240563,217713,
240518,217668,
240518,217665,
240374,217607,
240305,217583,
240159,217494,
240110,217472,
239997,217409,
240037,217448,
240026,217427,
240132,217491,
240224,217506,
240386,217630,
240552,217676,
240779,217801,
240948,217860,
241186,217987,
241364,218045,
241604,218170,
241747,218236,
241949,218344,
242080,218396,
242258,218476,
242330,218524,
242470,218578,
242521,218611,
242649,218676,
242688,218682,
242792,218749,
242813,218755,
242906,218794,
242921,218782,
242986,218823,
242990,218814,
243064,218860,
243072,218883,
243164,218907,
243186,218928,
243295,218962,
243347,218993,
243472,219048,
243559,219105,
243708,219172,
243792,219211,
243946,219297,
244009,219334,
244148,219390,
244158,219401,
244115,219359,
243826,219199,
243340,218936,
242614,218571,
241853,218193,
240789,217664,
239622,217139,
238735,216741,
238249,216556,
237963,216420,
237860,216384,
237848,216394,
237971,216452,
238122,216522,
238387,216639,
238605,216744,
238880,216880,
239114,216992,
239374,217090,
239538,217153,
239680,217228,
239769,217265,
239832,217309,
239940,217337,
240057,217414,
240225,217472,
240402,217562,
240563,217648,
240709,217690,
240770,217725,
240801,217739,
240767,217719,
240714,217676,
240604,217638,
240505,217561,
240381,217516,
240251,217450,
240166,217427,
240139,217396,
240146,217423,
240221,217426,
240307,217488,
240452,217535,
240609,217642,
240781,217700,
240962,217816,
241152,217864,
241292,217965,
241468,218013,
241637,218124,
241778,218157,
241883,218208,
241985,218275,
242082,218338,
242165,218336,
242222,218398,
242303,218410,
242365,218450,
242407,218455,
242449,218494,
242476,218490,
242531,218538,
242571,218523,
242598,218560,
242632,218544,
242649,218570,
242671,218592,
242740,218626,
242759,218606,
242822,218681,
242901,218681,
243005,218746,
243074,218756,
243201,218859,
243303,218862,
243428,218956,
243521,218967,
243616,219059,
243592,219023,
243522,218983,
243161,218770,
242662,218541,
241904,218106,
240935,217639,
239696,217040,
238713,216647,
238076,216338,
237706,216223,
237475,216097,
237415,216108,
237453,216101,
237586,216186,
237731,216233,
237981,216381,
238211,216468,
238489,216595,
238724,216687,
238947,216799,
239060,216829,
239229,216923,
239256,216922,
239407,217018,
239475,217021,
239669,217134,
239814,217191,
240028,217313,
240168,217334,
240332,217437,
240377,217415,
240432,217470,
240350,217410,
240319,217422,
240194,217313,
240127,217296,
239954,217204,
239910,217210,
239802,217141,
239843,217188,
239833,217153,
239947,217236,
240017,217242,
240185,217363,
240341,217385,
240564,217550,
240733,217570,
240988,217722,
241147,217765,
241380,217908,
241502,217937,
241692,218073,
241806,218074,
241981,218190,
242036,218193,
242211,218287,
242256,218303,
242389,218381,
242413,218361,
242543,218442,
242546,218425,
242658,218512,
242681,218490,
242760,218547,
242761,218533,
242844,218595,
242856,218555,
242929,218631,
242905,218602,
243011,218666,
242999,218637,
243118,218700,
243122,218698,
243254,218787,
243295,218776,
243449,218897,
243499,218878,
243665,218966,
243702,218981,
243835,219073,
243852,219044,
243908,219084,
243674,218938,
243366,218787,
242697,218421,
242017,218085,
240960,217539,
239818,217040,
238751,216518,
238166,216310,
237751,216095,
237641,216082,
237527,216010,
237640,216095,
237744,216120,
237997,216274,
238198,216327,
238537,216517,
238782,216600,
239094,216764,
239266,216808,
239501,216943,
239571,216938,
239735,217029,
239810,217056,
239985,217163,
240108,217187,
240360,217347,
240507,217371,
240723,217500,
240801,217507,
240936,217592,
240919,217552,
240968,217598,
240849,217502,
240854,217531,
240708,217416,
240667,217442,
240530,217343,
240552,217386,
240490,217312,
240572,217391,
240597,217374,
240800,217502,
240909,217530,
241171,217697,
241335,217735,
241601,217888,
241748,217933,
242001,218085,
242139,218121,
242377,218273,
242476,218268,
242653,218403,
242716,218406,
242877,218493,
242897,218493,
243055,218592,
243070,218557,
243206,218655,
243215,218638,
243377,218727,
243381,218712,
243514,218814,
243515,218773,
243651,218903,
243660,218852,
243772,218931,
243804,218907,
243905,219004,
243914,218987,
244023,219058,
244043,219042,
244169,219135,
244187,219134,
244335,219214,
244370,219218,
244528,219312,
244549,219292,
244733,219410,
244755,219407,
244935,219506,
244981,219506,
245141,219592,
245101,219571,
245121,219577,
244844,219415,
244437,219201,
243601,218768,
242841,218391,
241944,217929,
241024,217481,
239916,216954,
239107,216620,
238580,216375,
238464,216364,
238384,216320,
238521,216395,
238629,216439,
238930,216589,
239170,216690,
239512,216861,
239725,216949,
240049,217094,
240210,217168,
240433,217282,
240499,217288,
240642,217378,
240690,217395,
240874,217494,
241007,217534,
241264,217660,
241393,217717,
241618,217836,
241680,217851,
241765,217901,
241730,217868,
241734,217861,
241615,217786,
241550,217766,
241424,217678,
241357,217660,
241222,217590,
241217,217590,
241147,217554,
241224,217603,
241268,217628,
241435,217705,
241539,217755,
241749,217860,
241887,217930,
242110,218045,
242265,218101,
242492,218230,
242601,218266,
242802,218367,
242900,218403,
243056,218498,
243110,218516,
243238,218589,
243284,218598,
243395,218662,
243415,218655,
243513,218713,
243500,218694,
243572,218738,
243578,218727,
243657,218771,
243652,218767,
243710,218801,
243702,218791,
243779,218833,
243769,218839,
243834,218869,
243833,218861,
243925,218879,
243919,218908,
244002,218953,
244015,218970,
244114,219016,
244163,219016,
244278,219097,
244363,219116,
244485,219198,
244572,219232,
244691,219298,
244780,219347,
244882,219369,
244852,219377,
244802,219319,
244472,219156,
243964,218868,
243154,218456,
242394,218057,
241399,217545,
240249,216990,
239154,216524,
238549,216245,
238214,216122,
238090,216081,
238035,216061,
238163,216125,
238285,216194,
238524,216303,
238766,216408,
239071,216545,
239281,216661,
239546,216758,
239723,216873,
239917,216933,
240026,216994,
240155,217042,
240256,217094,
240447,217190,
240616,217268,
240825,217345,
240986,217430,
241116,217478,
241176,217510,
241231,217518,
241175,217506,
241133,217478,
241034,217419,
240931,217349,
240773,217291,
240672,217224,
240544,217185,
240516,217161,
240521,217171,
240575,217207,
240673,217261,
240834,217335,
240997,217420,
241193,217500,
241392,217610,
241595,217703,
241801,217799,
242015,217889,
242195,217996,
242366,218059,
242494,218140,
242648,218190,
242759,218259,
242844,218288,
242936,218335,
243013,218363,
243072,218406,
243143,218420,
243189,218454,
243257,218471,
243301,218524,
243353,218546,
243399,218568,
243466,218575,
243503,218611,
243570,218644,
243616,218679,
243676,218672,
243738,218723,
243796,218732,
243870,218781,
243900,218791,
243993,218860,
244040,218869,
244123,218914,
244190,218934,
244283,219011,
244385,219022,
244468,219118,
244544,219118,
244686,219195,
244773,219219,
244855,219307,
244863,219268,
244809,219254,
244487,219046,
243947,218780,
243152,218330,
242363,217947,
241324,217399,
240127,216858,
239057,216357,
238472,216141,
238159,215979,
238058,215969,
238076,215951,
238211,216055,
238423,216124,
238704,216279,
238980,216397,
239313,216546,
239576,216662,
239865,216829,
240068,216892,
240288,217017,
240401,217056,
240560,217133,
240653,217195,
240854,217257,
241002,217335,
241221,217465,
241333,217501,
241528,217591,
241594,217593,
241650,217658,
241611,217614,
241597,217605,
241466,217510,
241380,217491,
241212,217385,
241107,217350,
240954,217263,
240917,217263,
240833,217203,
240903,217250,
240931,217267,
241090,217371,
241197,217394,
241396,217525,
241530,217574,
241762,217700,
241923,217753,
242151,217889,
242286,217927,
242495,218039,
242617,218086,
242792,218197,
242871,218193,
243008,218295,
243058,218299,
243164,218385,
243174,218364,
243263,218430,
243282,218404,
243370,218469,
243369,218448,
243463,218510,
243469,218487,
243535,218542,
243545,218518,
243631,218594,
243618,218563,
243701,218608,
243678,218586,
243782,218659,
243775,218632,
243881,218691,
243875,218686,
243992,218750,
244001,218754,
244126,218832,
244154,218833,
244295,218913,
244341,218916,
244499,219008,
244530,219007,
244696,219117,
244737,219134,
244854,219203,
244802,219141,
244739,219129,
244311,218858,
243719,218602,
242903,218141,
242086,217743,
240894,217112,
239697,216581,
238761,216158,
238333,215995,
238040,215852,
237993,215884,
238000,215846,
238162,215971,
238329,216024,
238622,216211,
238887,216290,
239235,216478,
239475,216571,
239807,216746,
240002,216801,
240272,216945,
240403,216970,
240615,217105,
240731,217120,
240972,217260,
241128,217302,
241361,217451,
241473,217474,
241639,217582,
241659,217551,
241755,217625,
241677,217552,
241667,217576,
241525,217469,
241425,217449,
241220,217319,
241123,217293,
240970,217189,
240912,217199,
240822,217141,
240903,217194,
240911,217184,
241060,217289,
241155,217269,
241364,217437,
241463,217445,
241672,217573,
241790,217608,
241975,217741,
242062,217734,
242195,217836,
242215,217797,
242314,217874,
242298,217827,
242372,217925,
242383,217886,
242493,217971,
242511,217939,
242630,218031,
242641,218003,
242761,218093,
242799,218078,
242956,218191,
243005,218190,
243177,218301,
243186,218281,
243320,218362,
243334,218348,
243474,218448,
243470,218410,
243591,218501,
243601,218473,
243728,218563,
243720,218550,
243840,218624,
243850,218608,
244011,218694,
244019,218683,
244173,218786,
244204,218804,
244389,218894,
244424,218907,
244590,219021,
244620,219006,
244737,219087,
244666,219004,
244555,218955,
244057,218667,
243503,218383,
242651,217944,
241719,217477,
240377,216829,
239278,216339,
238503,216000,
238141,215864,
237865,215731,
237826,215752,
237785,215713,
237941,215817,
238065,215855,
238349,216016,
238547,216097,
238888,216281,
239111,216353,
239450,216514,
239619,216582,
239848,216688,
239945,216738,
240145,216836,
240247,216881,
240509,216990,
240644,217031,
240877,217177,
241001,217210,
241216,217317,
241245,217323,
241324,217360,
241253,217306,
241258,217320,
241097,217219,
240994,217186,
240819,217081,
240733,217059,
240568,216981,
240590,216999,
240544,216968,
240651,217038,
240702,217050,
240905,217168,
241022,217202,
241245,217329,
241411,217401,
241634,217509,
241766,217574,
241966,217672,
242122,217722,
242324,217828,
242434,217889,
242624,217973,
242733,218012,
242855,218091,
242963,218138,
243091,218202,
243146,218215,
243253,218274,
243279,218274,
243368,218327,
243350,218313,
243426,218362,
243430,218362,
243505,218402,
243519,218392,
243603,218446,
243613,218464,
243707,218487,
243721,218490,
243813,218530,
243819,218534,
243874,218580,
243908,218585,
243978,218634,
244007,218636,
244089,218686,
244145,218715,
244240,218765,
244329,218788,
244458,218874,
244506,218898,
244635,218962,
244709,219001,
244832,219051,
244843,219047,
244779,218995,
244447,218847,
243934,218556,
243171,218176,
242332,217752,
241183,217162,
239912,216576,
238895,216161,
238365,215930,
238013,215793,
237844,215722,
237818,215737,
237921,215769,
238060,215843,
238303,215956,
238543,216066,
238868,216212,
239150,216351,
239476,216491,
239723,216600,
239983,216709,
240157,216805,
240353,216888,
240493,216948,
240686,217037,
240874,217135,
241080,217223,
241240,217297,
241394,217356,
241452,217386,
241506,217419,
241463,217391,
241451,217359,
241333,217302,
241191,217238,
241025,217159,
240871,217079,
240715,217028,
240631,216953,
240582,216955,
240592,216960,
240642,216993,
240761,217042,
240896,217122,
241094,217207,
241297,217319,
241508,217410,
241718,217528,
241939,217601,
242133,217712,
242338,217790,
242498,217877,
242667,217954,
242820,218030,
242926,218073,
243045,218156,
243162,218168,
243240,218228,
243300,218235,
243361,218287,
243428,218295,
243467,218343,
243525,218355,
243567,218397,
243641,218398,
243681,218443,
243738,218455,
243795,218496,
243854,218507,
243892,218554,
243963,218571,
244027,218595,
244065,218604,
244104,218654,
244182,218664,
244235,218697,
244318,218727,
244386,218777,
244448,218802,
244557,218879,
244653,218887,
244765,218983,
244849,218997,
244964,219075,
245064,219080,
245118,219137,
245080,219082,
244896,219019,
244458,218754,
243783,218440,
242971,218002,
242095,217584,
240944,216999,
239839,216532,
239005,216162,
238558,216030,
238316,215890,
238255,215908,
238293,215889,
238440,216011,
238650,216065,
238955,216237,
239223,216336,
239576,216529,
239884,216643,
240203,216811,
240470,216889,
240707,217026,
240885,217082,
241079,217213,
241257,217257,
241508,217396,
241669,217432,
241883,217567,
242027,217587,
242140,217684,
242189,217666,
242219,217699,
242117,217627,
242073,217642,
241927,217524,
241800,217490,
241594,217352,
241496,217344,
241328,217240,
241288,217248,
241201,217183,
241287,217255,
241321,217250,
241482,217359,
241589,217355,
241829,217514,
241955,217548,
242207,217721,
242368,217732,
242655,217904,
242801,217941,
243023,218096,
243140,218107,
243358,218244,
243436,218235,
243600,218362,
243649,218354,
243791,218459,
243818,218405,
243942,218525,
COM4 disconnected!
