16	14	28	22	930	80.0	-52572.0	-46014.0	-5869908.0
16	14	28	22	930	81.0	-32911.0	-45907.0	-5869387.0
16	14	28	23	63	82.0	-12477.0	-45935.0	-5868917.0
16	14	28	23	64	83.0	2165.0	-45746.0	-5870151.0
16	14	28	23	64	84.0	17743.0	-45466.0	-5870514.0
16	14	28	23	64	85.0	46304.0	-46172.0	-5870004.0
16	14	28	23	65	86.0	80646.0	-47238.0	-5869356.0
16	14	28	23	65	87.0	101125.0	-46286.0	-5869373.0
16	14	28	23	65	88.0	105160.0	-46130.0	-5870446.0
16	14	28	23	66	89.0	106503.0	-45755.0	-5870222.0
16	14	28	23	66	90.0	115227.0	-45117.0	-5869607.0
16	14	28	23	66	91.0	116787.0	-44766.0	-5869374.0
16	14	28	23	66	92.0	116328.0	-44081.0	-5870340.0
16	14	28	23	67	93.0	122014.0	-44605.0	-5870306.0
16	14	28	23	67	94.0	133489.0	-44944.0	-5869664.0
16	14	28	23	67	95.0	129945.0	-44304.0	-5869155.0
16	14	28	23	68	96.0	97123.0	-43023.0	-5869863.0
16	14	28	23	68	97.0	53966.0	-42088.0	-5870529.0
16	14	28	23	68	98.0	26979.0	-41994.0	-5869963.0
16	14	28	23	68	99.0	8891.0	-41942.0	-5869350.0
16	14	28	23	69	100.0	-12379.0	-41084.0	-5869216.0
16	14	28	23	69	101.0	-25076.0	-40811.0	-5870296.0
16	14	28	23	69	102.0	-17257.0	-39431.0	-5870094.0
16	14	28	23	70	103.0	-3012.0	-37545.0	-5869482.0
16	14	28	23	70	104.0	618.0	-36834.0	-5868917.0
16	14	28	23	70	105.0	-834.0	-36599.0	-5869089.0
16	14	28	23	70	106.0	10798.0	-35652.0	-5869712.0
16	14	28	23	71	107.0	34307.0	-35316.0	-5869272.0
16	14	28	23	71	108.0	48843.0	-35850.0	-5869392.0
16	14	28	23	71	109.0	43619.0	-35411.0	-5870707.0
16	14	28	23	72	110.0	33548.0	-33985.0	-5870370.0
16	14	28	23	72	111.0	32068.0	-31356.0	-5869819.0
16	14	28	23	72	112.0	39392.0	-30371.0	-5869218.0
16	14	28	23	73	113.0	28723.0	-29059.0	-5869447.0
16	14	28	23	73	114.0	8568.0	-28017.0	-5870576.0
16	14	28	23	74	115.0	-5627.0	-28191.0	-5870142.0
16	14	28	23	74	116.0	-22082.0	-28672.0	-5869529.0
16	14	28	23	74	117.0	-57052.0	-27126.0	-5869019.0
16	14	28	23	75	118.0	-102271.0	-25837.0	-5869929.0
16	14	28	23	75	119.0	-132051.0	-24989.0	-5870302.0
16	14	28	23	75	120.0	-139459.0	-24262.0	-5869734.0
16	14	28	23	76	121.0	-139756.0	-23449.0	-5869132.0
16	14	28	23	76	122.0	-147813.0	-22629.0	-5869249.0
16	14	28	23	76	123.0	-161469.0	-22651.0	-5870406.0
16	14	28	23	77	124.0	-162271.0	-21775.0	-5870087.0
16	14	28	23	77	125.0	-152629.0	-20697.0	-5869452.0
16	14	28	23	77	126.0	-142174.0	-19513.0	-5869222.0
16	14	28	23	78	127.0	-130364.0	-19492.0	-5870376.0
16	14	28	23	78	128.0	-107413.0	-19609.0	-5870383.0
16	14	28	23	78	129.0	-74149.0	-19423.0	-5869730.0
16	14	28	23	78	130.0	-43925.0	-19472.0	-5869175.0
16	14	28	23	79	131.0	-34862.0	-19388.0	-5868897.0
16	14	28	23	79	132.0	-36436.0	-18448.0	-5869824.0
16	14	28	23	79	133.0	-29426.0	-16631.0	-5869550.0
16	14	28	23	80	134.0	-12858.0	-15592.0	-5868982.0
16	14	28	23	80	135.0	-3601.0	-15212.0	-5868888.0
16	14	28	23	80	136.0	-2395.0	-15117.0	-5870279.0
16	14	28	23	81	137.0	1739.0	-14724.0	-5870094.0
16	14	28	23	81	138.0	20358.0	-15026.0	-5869536.0
16	14	28	23	81	139.0	38001.0	-15189.0	-5869319.0
16	14	28	23	82	140.0	48896.0	-14737.0	-5870642.0
16	14	28	23	82	141.0	56791.0	-13493.0	-5870518.0
16	14	28	23	82	142.0	67881.0	-13349.0	-5869976.0
16	14	28	23	83	143.0	86418.0	-13692.0	-5869367.0
16	14	28	23	83	144.0	94893.0	-14284.0	-5869984.0
16	14	28	23	83	145.0	84340.0	-14731.0	-5870819.0
16	14	28	23	206	146.0	68831.0	-15467.0	-5870369.0
16	14	28	23	206	147.0	68484.0	-14715.0	-5869693.0
16	14	28	23	206	148.0	84105.0	-13621.0	-5869471.0
16	14	28	23	207	149.0	98955.0	-13967.0	-5870477.0
16	14	28	23	207	150.0	102184.0	-14194.0	-5870496.0
16	14	28	23	207	151.0	106306.0	-14552.0	-5869851.0
16	14	28	23	208	152.0	115850.0	-15097.0	-5869412.0
16	14	28	23	209	153.0	126764.0	-16156.0	-5870056.0
16	14	28	23	210	154.0	125373.0	-16492.0	-5870685.0
16	14	28	23	211	155.0	108103.0	-15701.0	-5870079.0
16	14	28	23	211	156.0	91734.0	-14557.0	-5869579.0
16	14	28	23	212	157.0	87823.0	-14176.0	-5869910.0
16	14	28	23	212	158.0	89811.0	-14214.0	-5871122.0
16	14	28	23	212	159.0	85132.0	-14511.0	-5870669.0
16	14	28	23	212	160.0	78906.0	-15049.0	-5870151.0
16	14	28	23	213	161.0	83153.0	-15974.0	-5869712.0
16	14	28	23	213	162.0	90795.0	-15592.0	-5870742.0
16	14	28	23	213	163.0	96860.0	-14522.0	-5870968.0
16	14	28	23	214	164.0	83905.0	-14621.0	-5870441.0
16	14	28	23	214	165.0	57228.0	-15097.0	-5869819.0
16	14	28	23	214	166.0	47413.0	-14497.0	-5869599.0
16	14	28	23	214	167.0	41455.0	-14976.0	-5870658.0
16	14	28	23	215	168.0	11857.0	-15751.0	-5870539.0
16	14	28	23	215	169.0	-12608.0	-15385.0	-5869902.0
16	14	28	23	215	170.0	-9687.0	-14117.0	-5869674.0
16	14	28	23	215	171.0	5224.0	-13203.0	-5870921.0
16	14	28	23	216	172.0	13264.0	-13373.0	-5870953.0
16	14	28	23	216	173.0	1046.0	-14261.0	-5870308.0
16	14	28	23	216	174.0	-30011.0	-14681.0	-5869741.0
16	14	28	23	217	175.0	-55891.0	-14547.0	-5870255.0
16	14	28	23	217	176.0	-62544.0	-14602.0	-5871377.0
16	14	28	23	217	177.0	-55634.0	-14521.0	-5870876.0
16	14	28	23	217	178.0	-53345.0	-14466.0	-5870297.0
16	14	28	23	218	179.0	-70853.0	-14600.0	-5869949.0
16	14	28	23	218	180.0	-89620.0	-14737.0	-5871152.0
16	14	28	23	218	181.0	-93286.0	-14723.0	-5871266.0
16	14	28	23	219	182.0	-94137.0	-14380.0	-5870671.0
16	14	28	23	219	183.0	-96810.0	-14722.0	-5870094.0
16	14	28	23	219	184.0	-106519.0	-14876.0	-5869997.0
16	14	28	23	219	185.0	-107251.0	-14212.0	-5871178.0
16	14	28	23	220	186.0	-95527.0	-13875.0	-5870950.0
16	14	28	23	220	187.0	-91141.0	-13563.0	-5870372.0
16	14	28	23	220	188.0	-88699.0	-13378.0	-5870201.0
16	14	28	23	220	189.0	-90166.0	-11971.0	-5871596.0
16	14	28	23	221	190.0	-75295.0	-12373.0	-5871511.0
16	14	28	23	221	191.0	-45250.0	-12430.0	-5870926.0
16	14	28	23	221	192.0	-14636.0	-12097.0	-5870316.0
16	14	28	23	222	193.0	1981.0	-11922.0	-5870390.0
16	14	28	23	222	194.0	-3862.0	-12149.0	-5871637.0
16	14	28	23	222	195.0	-13482.0	-12291.0	-5871400.0
16	14	28	23	223	196.0	-11657.0	-12590.0	-5870716.0
16	14	28	23	223	197.0	-6935.0	-12456.0	-5870262.0
16	14	28	23	223	198.0	-9686.0	-12860.0	-5871078.0
16	14	28	23	224	199.0	-15059.0	-12947.0	-5871691.0
16	14	28	23	224	200.0	-24131.0	-12178.0	-5871068.0
16	14	28	23	224	201.0	-31407.0	-10933.0	-5870522.0
16	14	28	23	224	202.0	-42901.0	-10201.0	-5870206.0
16	14	28	23	225	203.0	-57454.0	-10266.0	-5871189.0
16	14	28	23	225	204.0	-58697.0	-10411.0	-5871007.0
16	14	28	23	225	205.0	-40414.0	-10774.0	-5870466.0
16	14	28	23	226	206.0	-10041.0	-11351.0	-5870422.0
16	14	28	23	226	207.0	25336.0	-11106.0	-5871164.0
16	14	28	23	226	208.0	61326.0	-10257.0	-5870774.0
16	14	28	23	226	209.0	100863.0	-9966.0	-5870189.0
16	14	28	23	227	210.0	154559.0	-9703.0	-5870481.0
16	14	28	23	227	211.0	210921.0	-9605.0	-5871012.0
16	14	28	23	227	212.0	247534.0	-9094.0	-5870498.0
16	14	28	23	228	213.0	257592.0	-10026.0	-5869958.0
16	14	28	23	228	214.0	246713.0	-9537.0	-5870281.0
16	14	28	23	228	215.0	233270.0	-8394.0	-5870662.0
16	14	28	23	228	216.0	215896.0	-7617.0	-5870130.0
16	14	28	23	229	217.0	195904.0	-6349.0	-5869572.0
16	14	28	23	229	218.0	174486.0	-5991.0	-5870119.0
16	14	28	23	229	219.0	146723.0	-5524.0	-5870385.0
16	14	28	23	230	220.0	108468.0	-6087.0	-5869872.0
16	14	28	23	351	221.0	53446.0	-5869.0	-5869459.0
16	14	28	23	351	222.0	-12117.0	-4452.0	-5870302.0
16	14	28	23	352	223.0	-77354.0	-3504.0	-5870192.0
16	14	28	23	352	224.0	-121539.0	-3699.0	-5869621.0
16	14	28	23	352	225.0	-122454.0	-3184.0	-5869192.0
16	14	28	23	353	226.0	-133058.0	-3292.0	-5869937.0
16	14	28	23	353	227.0	-244458.0	-2872.0	-5869699.0
16	14	28	23	353	228.0	-435079.0	-3031.0	-5869153.0
16	14	28	23	353	229.0	-585822.0	-2640.0	-5869662.0
16	14	28	23	354	230.0	-641886.0	-2088.0	-5870648.0
16	14	28	23	354	231.0	-606440.0	-1790.0	-5870117.0
16	14	28	23	354	232.0	-526524.0	-1847.0	-5869611.0
16	14	28	23	354	233.0	-443440.0	-1419.0	-5869099.0
16	14	28	23	355	234.0	-280027.0	-542.0	-5870051.0
16	14	28	23	355	235.0	-3175.0	-139.0	-5870417.0
16	14	28	23	355	236.0	301717.0	-443.0	-5869932.0
16	14	28	23	356	237.0	552875.0	-133.0	-5869343.0
16	14	28	23	356	238.0	739743.0	-142.0	-5870117.0
16	14	28	23	356	239.0	878029.0	1008.0	-5870860.0
16	14	28	23	356	240.0	990273.0	2051.0	-5870393.0
16	14	28	23	357	241.0	1043603.0	1678.0	-5869719.0
16	14	28	23	357	242.0	957177.0	1553.0	-5869354.0
16	14	28	23	357	243.0	722273.0	1148.0	-5870317.0
16	14	28	23	358	244.0	421203.0	1081.0	-5870666.0
16	14	28	23	358	245.0	94979.0	1081.0	-5869999.0
16	14	28	23	358	246.0	-242659.0	1444.0	-5869428.0
16	14	28	23	358	247.0	-565204.0	2308.0	-5869738.0
16	14	28	23	359	248.0	-825113.0	3404.0	-5870643.0
16	14	28	23	359	249.0	-974913.0	3828.0	-5870118.0
16	14	28	23	359	250.0	-987528.0	3574.0	-5869587.0
16	14	28	23	359	251.0	-841441.0	3809.0	-5869594.0
16	14	28	23	360	252.0	-547052.0	4850.0	-5870799.0
16	14	28	23	360	253.0	-178027.0	4828.0	-5870499.0
16	14	28	23	360	254.0	167324.0	4347.0	-5869974.0
16	14	28	23	361	255.0	400709.0	4756.0	-5869416.0
16	14	28	23	361	0.0	495741.0	5010.0	-5869974.0
16	14	28	23	362	1.0	465118.0	4759.0	-5870729.0
16	14	28	23	362	2.0	354360.0	4034.0	-5870201.0
16	14	28	23	362	3.0	196338.0	3849.0	-5869551.0
16	14	28	23	363	4.0	26151.0	4466.0	-5869502.0
16	14	28	23	363	5.0	-118796.0	4916.0	-5870632.0
16	14	28	23	363	6.0	-223296.0	5911.0	-5870376.0
16	14	28	23	364	7.0	-276347.0	6129.0	-5869786.0
16	14	28	23	364	8.0	-268265.0	6281.0	-5869309.0
16	14	28	23	365	9.0	-216767.0	5268.0	-5870290.0
16	14	28	23	365	10.0	-158227.0	4377.0	-5870896.0
16	14	28	23	365	11.0	-102491.0	5186.0	-5870346.0
16	14	28	23	366	12.0	-95437.0	6345.0	-5869761.0
16	14	28	23	366	13.0	-192171.0	6234.0	-5870149.0
16	14	28	23	366	14.0	-269474.0	6114.0	-5871252.0
16	14	28	23	367	15.0	-238546.0	6076.0	-5870873.0
16	14	28	23	367	16.0	-158017.0	6142.0	-5870264.0
16	14	28	23	367	17.0	-53257.0	5728.0	-5869921.0
16	14	28	23	368	18.0	47998.0	6474.0	-5870948.0
16	14	28	23	368	19.0	96491.0	7999.0	-5871132.0
16	14	28	23	368	20.0	96715.0	8046.0	-5870474.0
16	14	28	23	369	21.0	75446.0	8040.0	-5869922.0
16	14	28	23	369	22.0	60820.0	7557.0	-5869800.0
16	14	28	23	369	23.0	52518.0	7644.0	-5871176.0
16	14	28	23	370	24.0	32725.0	7289.0	-5870974.0
16	14	28	23	370	25.0	-17533.0	6213.0	-5870468.0
16	14	28	23	371	26.0	-83777.0	6136.0	-5870052.0
16	14	28	23	371	27.0	-131409.0	7062.0	-5871302.0
16	14	28	23	371	28.0	-215249.0	6828.0	-5871493.0
16	14	28	23	372	29.0	-290355.0	6403.0	-5870928.0
16	14	28	23	372	30.0	-275479.0	6302.0	-5870292.0
16	14	28	23	373	31.0	-347482.0	6363.0	-5870702.0
16	14	28	23	373	32.0	-456222.0	5889.0	-5871456.0
16	14	28	23	373	33.0	-326500.0	5978.0	-5871071.0
16	14	28	23	374	34.0	-111485.0	6678.0	-5870451.0
16	14	28	23	374	35.0	103586.0	7726.0	-5870014.0
16	14	28	23	375	36.0	274044.0	7917.0	-5870724.0
16	14	28	23	375	37.0	350241.0	8136.0	-5871425.0
16	14	28	23	375	38.0	352566.0	8593.0	-5870813.0
16	14	28	23	376	39.0	308937.0	8120.0	-5870314.0
16	14	28	23	376	40.0	244765.0	7643.0	-5870782.0
16	14	28	23	377	41.0	190331.0	8321.0	-5871623.0
16	14	28	23	377	42.0	157437.0	9196.0	-5871050.0
16	14	28	23	377	43.0	147488.0	9470.0	-5870520.0
16	14	28	23	378	44.0	136571.0	9638.0	-5870321.0
16	14	28	23	378	45.0	84656.0	9594.0	-5871697.0
16	14	28	23	378	46.0	32056.0	9695.0	-5871582.0
16	14	28	23	496	47.0	31141.0	9111.0	-5871059.0
16	14	28	23	496	48.0	40136.0	8840.0	-5870466.0
16	14	28	23	496	49.0	43077.0	9694.0	-5871092.0
16	14	28	23	497	50.0	76966.0	10708.0	-5871950.0
16	14	28	23	497	51.0	106602.0	11786.0	-5871445.0
16	14	28	23	497	52.0	99954.0	12781.0	-5870799.0
16	14	28	23	497	53.0	73903.0	13626.0	-5870421.0
16	14	28	23	498	54.0	49789.0	14072.0	-5871652.0
16	14	28	23	498	55.0	50138.0	14508.0	-5871943.0
16	14	28	23	498	56.0	76614.0	15860.0	-5871359.0
16	14	28	23	499	57.0	117905.0	17478.0	-5870783.0
16	14	28	23	499	58.0	163684.0	19335.0	-5870993.0
16	14	28	23	499	59.0	169587.0	21079.0	-5872011.0
16	14	28	23	499	60.0	117726.0	23003.0	-5871604.0
16	14	28	23	500	61.0	44324.0	25112.0	-5870994.0
16	14	28	23	500	62.0	-21219.0	25651.0	-5871174.0
16	14	28	23	500	63.0	-55227.0	28228.0	-5872177.0
16	14	28	23	500	64.0	-61168.0	31432.0	-5871793.0
16	14	28	23	501	65.0	-44018.0	33876.0	-5871184.0
16	14	28	23	501	66.0	-23547.0	36292.0	-5870604.0
16	14	28	23	501	67.0	-39341.0	39579.0	-5870548.0
16	14	28	23	502	68.0	-86206.0	42945.0	-5871281.0
16	14	28	23	502	69.0	-128712.0	45908.0	-5870856.0
16	14	28	23	502	70.0	-126057.0	48783.0	-5870307.0
16	14	28	23	502	71.0	-76666.0	52892.0	-5870941.0
16	14	28	23	503	72.0	-35714.0	56293.0	-5871720.0
16	14	28	23	503	73.0	-35238.0	59391.0	-5871182.0
16	14	28	23	503	74.0	-64576.0	61852.0	-5870645.0
16	14	28	23	503	75.0	-90172.0	65213.0	-5870817.0
16	14	28	23	503	76.0	-74469.0	68359.0	-5871202.0
16	14	28	23	504	77.0	-17259.0	70517.0	-5870717.0
16	14	28	23	504	78.0	21739.0	73255.0	-5870136.0
16	14	28	23	504	79.0	19552.0	75967.0	-5870609.0
16	14	28	23	504	80.0	1067.0	79282.0	-5870986.0
16	14	28	23	505	81.0	-8149.0	82512.0	-5870462.0
16	14	28	23	505	82.0	1812.0	85104.0	-5869891.0
16	14	28	23	505	83.0	10406.0	87402.0	-5870334.0
16	14	28	23	506	84.0	-10294.0	89128.0	-5870687.0
16	14	28	23	506	85.0	-39782.0	91202.0	-5870179.0
16	14	28	23	507	86.0	-62331.0	94617.0	-5869676.0
16	14	28	23	507	87.0	-86252.0	96266.0	-5870642.0
16	14	28	23	507	88.0	-108145.0	97389.0	-5871044.0
16	14	28	23	508	89.0	-139396.0	98268.0	-5870518.0
16	14	28	23	508	90.0	-179200.0	98948.0	-5869949.0
16	14	28	23	508	91.0	-203489.0	99093.0	-5870679.0
16	14	28	23	509	92.0	-217457.0	98844.0	-5871467.0
16	14	28	23	509	93.0	-235777.0	99479.0	-5871006.0
16	14	28	23	509	94.0	-248071.0	100733.0	-5870374.0
16	14	28	23	510	95.0	-249350.0	101979.0	-5870161.0
16	14	28	23	510	96.0	-242219.0	101614.0	-5871402.0
16	14	28	23	510	97.0	-242519.0	101061.0	-5871444.0
16	14	28	23	511	98.0	-237206.0	99758.0	-5870789.0
16	14	28	23	511	99.0	-229229.0	98210.0	-5870234.0
16	14	28	23	512	100.0	-219264.0	97271.0	-5870819.0
16	14	28	23	512	101.0	-193776.0	97324.0	-5871508.0
16	14	28	23	512	102.0	-148782.0	95774.0	-5870994.0
16	14	28	23	513	103.0	-100551.0	94227.0	-5870394.0
16	14	28	23	513	104.0	-64897.0	92213.0	-5870186.0
16	14	28	23	513	105.0	-33399.0	90179.0	-5871424.0
16	14	28	23	514	106.0	-257.0	87934.0	-5871478.0
16	14	28	23	514	107.0	29298.0	84365.0	-5870907.0
16	14	28	23	514	108.0	35023.0	81634.0	-5870421.0
16	14	28	23	515	109.0	9331.0	79559.0	-5871137.0
16	14	28	23	515	110.0	-41511.0	78031.0	-5871777.0
16	14	28	23	515	111.0	-166043.0	75326.0	-5871212.0
16	14	28	23	516	112.0	-363404.0	71505.0	-5870624.0
16	14	28	23	516	113.0	-537222.0	68172.0	-5870772.0
16	14	28	23	643	114.0	-470534.0	65061.0	-5871909.0
16	14	28	23	644	115.0	-130765.0	62798.0	-5871517.0
16	14	28	23	644	116.0	311013.0	61647.0	-5871016.0
16	14	28	23	645	117.0	669826.0	59429.0	-5870432.0
16	14	28	23	645	118.0	766821.0	56719.0	-5871002.0
16	14	28	23	646	119.0	602667.0	52918.0	-5871996.0
16	14	28	23	646	120.0	379414.0	49136.0	-5871542.0
16	14	28	23	646	121.0	216353.0	46033.0	-5870850.0
16	14	28	23	647	122.0	66499.0	43083.0	-5870847.0
16	14	28	23	647	123.0	-108599.0	40036.0	-5871831.0
16	14	28	23	647	124.0	-270027.0	36610.0	-5871576.0
16	14	28	23	648	125.0	-401138.0	34086.0	-5870912.0
16	14	28	23	648	126.0	-495826.0	31266.0	-5870596.0
16	14	28	23	648	127.0	-533047.0	28614.0	-5871614.0
16	14	28	23	648	128.0	-505262.0	26506.0	-5871885.0
16	14	28	23	649	129.0	-399562.0	23078.0	-5871251.0
16	14	28	23	649	130.0	-239256.0	20981.0	-5870716.0
16	14	28	23	649	136.0	164663.0	6143.0	-5871368.0
16	14	28	23	649	137.0	162055.0	3227.0	-5871836.0
16	14	28	23	650	138.0	162974.0	971.0	-5871291.0
16	14	28	23	650	139.0	166840.0	-1742.0	-5870694.0
16	14	28	23	650	140.0	165488.0	-4267.0	-5871100.0
16	14	28	23	651	141.0	165626.0	-6032.0	-5872209.0
16	14	28	23	651	142.0	154804.0	-8302.0	-5871811.0
16	14	28	23	651	143.0	137452.0	-9743.0	-5871198.0
16	14	28	23	651	144.0	124809.0	-11686.0	-5870874.0
16	14	28	23	652	145.0	111435.0	-12641.0	-5872099.0
16	14	28	23	652	146.0	92047.0	-12934.0	-5872395.0
16	14	28	23	652	147.0	60226.0	-14973.0	-5871784.0
16	14	28	23	652	148.0	31320.0	-17189.0	-5871157.0
16	14	28	23	653	149.0	22913.0	-18672.0	-5871022.0
16	14	28	23	653	150.0	38212.0	-20977.0	-5872367.0
16	14	28	23	653	151.0	74306.0	-23513.0	-5872334.0
16	14	28	23	654	152.0	106614.0	-26704.0	-5871711.0
16	14	28	23	654	153.0	140630.0	-27962.0	-5871163.0
16	14	28	23	654	154.0	188033.0	-28251.0	-5871242.0
16	14	28	23	655	155.0	239401.0	-28845.0	-5871897.0
16	14	28	23	655	156.0	282837.0	-30194.0	-5871471.0
16	14	28	23	655	157.0	311343.0	-31451.0	-5870931.0
16	14	28	23	656	158.0	325598.0	-32996.0	-5871677.0
16	14	28	23	656	159.0	327794.0	-35037.0	-5872527.0
16	14	28	23	656	160.0	316479.0	-36096.0	-5872024.0
16	14	28	23	656	161.0	295259.0	-36288.0	-5871401.0
16	14	28	23	657	162.0	257375.0	-36800.0	-5871407.0
16	14	28	23	657	163.0	210806.0	-39119.0	-5872634.0
16	14	28	23	657	164.0	166434.0	-41139.0	-5872346.0
16	14	28	23	658	165.0	147453.0	-42624.0	-5871811.0
16	14	28	23	658	166.0	146712.0	-44123.0	-5871248.0
16	14	28	23	658	167.0	137558.0	-46069.0	-5871759.0
16	14	28	23	658	168.0	121697.0	-46549.0	-5872499.0
16	14	28	23	659	169.0	102972.0	-46952.0	-5872021.0
16	14	28	23	659	170.0	90251.0	-47660.0	-5871400.0
16	14	28	23	659	171.0	85759.0	-48227.0	-5872091.0
16	14	28	23	659	172.0	87191.0	-48793.0	-5873072.0
16	14	28	23	660	173.0	105887.0	-49349.0	-5872639.0
16	14	28	23	660	174.0	119865.0	-49031.0	-5872042.0
16	14	28	23	660	175.0	122792.0	-48540.0	-5871653.0
16	14	28	23	660	176.0	107729.0	-48891.0	-5872683.0
16	14	28	23	661	177.0	81260.0	-49614.0	-5873076.0
16	14	28	23	661	178.0	54766.0	-49867.0	-5872468.0
16	14	28	23	662	179.0	41366.0	-50356.0	-5871888.0
16	14	28	23	662	180.0	32864.0	-51658.0	-5871655.0
16	14	28	23	663	181.0	23916.0	-52574.0	-5872709.0
16	14	28	23	663	182.0	26294.0	-53350.0	-5872408.0
16	14	28	23	664	183.0	52825.0	-53290.0	-5871875.0
16	14	28	23	664	184.0	101088.0	-52861.0	-5871300.0
16	14	28	23	664	185.0	152819.0	-52201.0	-5872174.0
16	14	28	23	665	186.0	188778.0	-51465.0	-5872799.0
16	14	28	23	665	187.0	198652.0	-50363.0	-5872313.0
16	14	28	23	812	188.0	189226.0	-48997.0	-5871702.0
16	14	28	23	812	189.0	178611.0	-49094.0	-5871952.0
16	14	28	23	812	190.0	164885.0	-48202.0	-5872899.0
16	14	28	23	813	191.0	145097.0	-47549.0	-5872545.0
16	14	28	23	813	192.0	131576.0	-46517.0	-5871853.0
16	14	28	23	813	193.0	133573.0	-46429.0	-5871591.0
16	14	28	23	813	194.0	132484.0	-45675.0	-5872734.0
16	14	28	23	814	195.0	128461.0	-45196.0	-5872876.0
16	14	28	23	814	196.0	113556.0	-45041.0	-5872219.0
16	14	28	23	814	197.0	107493.0	-45239.0	-5871698.0
16	14	28	23	814	198.0	114757.0	-44340.0	-5871406.0
16	14	28	23	814	199.0	122798.0	-43241.0	-5872634.0
16	14	28	23	815	200.0	111624.0	-41589.0	-5872557.0
16	14	28	23	815	201.0	82821.0	-40917.0	-5872006.0
16	14	28	23	815	202.0	54475.0	-40444.0	-5871605.0
16	14	28	23	815	203.0	33871.0	-39444.0	-5872439.0
16	14	28	23	816	204.0	20358.0	-39362.0	-5872371.0
16	14	28	23	816	205.0	-3101.0	-38869.0	-5871866.0
16	14	28	23	816	206.0	-28100.0	-37251.0	-5871490.0
16	14	28	23	816	207.0	-35254.0	-36150.0	-5872283.0
16	14	28	23	817	208.0	-24407.0	-35356.0	-5872113.0
16	14	28	23	817	209.0	-3017.0	-34146.0	-5871591.0
16	14	28	23	817	210.0	6367.0	-32941.0	-5871959.0
16	14	28	23	817	211.0	15156.0	-32414.0	-5872914.0
16	14	28	23	817	212.0	33678.0	-31900.0	-5872353.0
16	14	28	23	818	213.0	73418.0	-30587.0	-5871816.0
16	14	28	23	818	214.0	130284.0	-28258.0	-5871214.0
16	14	28	23	818	215.0	169849.0	-26871.0	-5872041.0
16	14	28	23	818	216.0	175561.0	-25867.0	-5872642.0
16	14	28	23	819	217.0	161663.0	-25272.0	-5872142.0
16	14	28	23	819	218.0	148653.0	-25273.0	-5871492.0
16	14	28	23	819	219.0	135649.0	-25679.0	-5871871.0
16	14	28	23	819	220.0	109239.0	-24852.0	-5872881.0
16	14	28	23	819	221.0	83814.0	-23172.0	-5872504.0
16	14	28	23	820	222.0	70806.0	-22051.0	-5871838.0
16	14	28	23	820	223.0	62322.0	-21427.0	-5871622.0
16	14	28	23	820	224.0	54785.0	-21029.0	-5872656.0
16	14	28	23	820	225.0	36971.0	-20157.0	-5872669.0
16	14	28	23	821	226.0	9481.0	-19402.0	-5872012.0
16	14	28	23	821	227.0	-16791.0	-18298.0	-5871461.0
16	14	28	23	821	228.0	-25136.0	-17757.0	-5871642.0
16	14	28	23	821	229.0	-30485.0	-17804.0	-5872739.0
16	14	28	23	821	230.0	-47907.0	-17931.0	-5872294.0
16	14	28	23	822	231.0	-68289.0	-18320.0	-5871709.0
16	14	28	23	822	232.0	-80129.0	-18439.0	-5871313.0
16	14	28	23	822	233.0	-74387.0	-17581.0	-5872497.0
16	14	28	23	822	234.0	-60987.0	-17699.0	-5872696.0
16	14	28	23	822	235.0	-45667.0	-17547.0	-5872114.0
16	14	28	23	823	236.0	-20567.0	-17736.0	-5871567.0
16	14	28	23	823	237.0	7468.0	-17494.0	-5872007.0
16	14	28	23	823	238.0	30050.0	-16531.0	-5872336.0
16	14	28	23	823	239.0	33580.0	-16151.0	-5871816.0
16	14	28	23	823	240.0	24752.0	-15456.0	-5871394.0
16	14	28	23	824	241.0	15929.0	-16117.0	-5872647.0
16	14	28	23	824	242.0	7832.0	-16121.0	-5872851.0
16	14	28	23	824	243.0	2109.0	-15374.0	-5872264.0
16	14	28	23	824	244.0	-16519.0	-15631.0	-5871671.0
16	14	28	23	824	245.0	-50042.0	-16329.0	-5871436.0
16	14	28	23	825	246.0	-77552.0	-16667.0	-5872757.0
16	14	28	23	825	247.0	-94586.0	-16537.0	-5872770.0
16	14	28	23	825	248.0	-106387.0	-16451.0	-5872164.0
16	14	28	23	825	249.0	-122225.0	-17946.0	-5871609.0
16	14	28	23	825	250.0	-138909.0	-18376.0	-5872068.0
16	14	28	23	826	251.0	-153713.0	-17500.0	-5872476.0
16	14	28	23	826	252.0	-152817.0	-16803.0	-5871933.0
16	14	28	23	826	253.0	-142391.0	-16777.0	-5871386.0
16	14	28	23	826	254.0	-143064.0	-16991.0	-5871885.0
16	14	28	23	827	255.0	-157206.0	-17339.0	-5872869.0
16	14	28	23	827	0.0	-165980.0	-18272.0	-5872436.0
16	14	28	23	827	1.0	-159232.0	-18709.0	-5871842.0
16	14	28	23	827	2.0	-145043.0	-18384.0	-5871360.0
16	14	28	23	828	3.0	-138480.0	-17786.0	-5872001.0
16	14	28	23	828	4.0	-140647.0	-18190.0	-5872456.0
16	14	28	23	828	5.0	-139132.0	-18674.0	-5871856.0
16	14	28	23	828	6.0	-133372.0	-18991.0	-5871328.0
16	14	28	23	829	7.0	-128536.0	-18748.0	-5871104.0
16	14	28	23	829	8.0	-134988.0	-19041.0	-5871826.0
16	14	28	23	829	9.0	-159569.0	-18217.0	-5871479.0
16	14	28	23	830	10.0	-164235.0	-16966.0	-5870932.0
16	14	28	23	830	11.0	-91353.0	-16484.0	-5871117.0
16	14	28	23	830	12.0	3583.0	-17316.0	-5871756.0
16	14	28	23	830	13.0	42946.0	-18018.0	-5871306.0
16	14	28	23	831	14.0	23561.0	-18316.0	-5871013.0
16	14	28	23	831	15.0	-6166.0	-18849.0	-5872209.0
16	14	28	23	981	16.0	-11771.0	-19168.0	-5872188.0
16	14	28	23	981	17.0	-11356.0	-18610.0	-5871610.0
16	14	28	23	981	18.0	-28214.0	-17976.0	-5871019.0
16	14	28	23	982	19.0	-37974.0	-17902.0	-5871342.0
16	14	28	23	982	20.0	-34899.0	-18252.0	-5872471.0
16	14	28	23	982	21.0	-34702.0	-17842.0	-5872054.0
16	14	28	23	982	22.0	-53160.0	-17197.0	-5871486.0
16	14	28	23	983	23.0	-60348.0	-17709.0	-5870921.0
16	14	28	23	983	24.0	-37856.0	-17157.0	-5871811.0
16	14	28	23	983	25.0	11994.0	-16026.0	-5872305.0
16	14	28	23	983	26.0	65063.0	-15465.0	-5871791.0
16	14	28	23	984	27.0	94416.0	-15658.0	-5871189.0
16	14	28	23	984	28.0	98918.0	-15192.0	-5871537.0
16	14	28	23	984	29.0	97737.0	-15523.0	-5872510.0
16	14	28	23	984	30.0	95706.0	-16712.0	-5872125.0
16	14	28	23	984	31.0	86266.0	-17222.0	-5871496.0
16	14	28	23	985	32.0	71236.0	-16571.0	-5871341.0
16	14	28	23	985	33.0	48232.0	-15367.0	-5872620.0
16	14	28	23	985	34.0	26294.0	-14881.0	-5872659.0
16	14	28	23	985	35.0	1873.0	-15187.0	-5871939.0
16	14	28	23	985	36.0	-20937.0	-14776.0	-5871392.0
16	14	28	23	985	37.0	-42150.0	-13538.0	-5871040.0
16	14	28	23	986	38.0	-65656.0	-13835.0	-5871862.0
16	14	28	23	986	39.0	-94432.0	-14229.0	-5871603.0
16	14	28	23	986	40.0	-115829.0	-13674.0	-5871033.0
16	14	28	23	986	41.0	-129681.0	-13209.0	-5870992.0
16	14	28	23	987	42.0	-135473.0	-12258.0	-5872283.0
16	14	28	23	987	43.0	-141303.0	-12162.0	-5872000.0
16	14	28	23	987	44.0	-152470.0	-12065.0	-5871431.0
16	14	28	23	987	45.0	-149406.0	-12387.0	-5871439.0
16	14	28	23	987	46.0	-136181.0	-12893.0	-5872822.0
16	14	28	23	988	47.0	-129692.0	-12374.0	-5872545.0
16	14	28	23	988	48.0	-134532.0	-10734.0	-5872002.0
16	14	28	23	988	49.0	-132960.0	-9201.0	-5871371.0
16	14	28	23	988	50.0	-117193.0	-8749.0	-5871838.0
16	14	28	23	988	51.0	-97162.0	-8911.0	-5872646.0
16	14	28	23	989	52.0	-67221.0	-9182.0	-5872219.0
16	14	28	23	989	53.0	-45776.0	-9937.0	-5871591.0
16	14	28	23	989	54.0	-32320.0	-10047.0	-5871427.0
16	14	28	23	989	55.0	-14996.0	-9062.0	-5872647.0
16	14	28	23	989	56.0	-8474.0	-7924.0	-5872727.0
16	14	28	23	990	57.0	-3449.0	-7858.0	-5872094.0
16	14	28	23	990	58.0	-8608.0	-7517.0	-5871594.0
16	14	28	23	990	59.0	-29236.0	-7501.0	-5872041.0
16	14	28	23	990	60.0	-43701.0	-7741.0	-5873088.0
16	14	28	23	990	61.0	-49054.0	-7474.0	-5872588.0
16	14	28	23	991	62.0	-39332.0	-6681.0	-5872074.0
16	14	28	23	991	63.0	-54694.0	-5508.0	-5871599.0
16	14	28	23	991	64.0	-394782.0	-5369.0	-5872247.0
16	14	28	23	992	65.0	-877305.0	-5551.0	-5872077.0
16	14	28	23	992	66.0	-693353.0	-5486.0	-5871577.0
16	14	28	23	992	67.0	-200001.0	-5291.0	-5871183.0
16	14	28	23	992	68.0	200596.0	-5997.0	-5872374.0
16	14	28	23	993	69.0	437537.0	-6045.0	-5872411.0
16	14	28	23	993	70.0	512734.0	-4849.0	-5871873.0
16	14	28	23	993	71.0	466594.0	-3692.0	-5871237.0
16	14	28	23	993	72.0	383998.0	-3127.0	-5871658.0
16	14	28	23	994	73.0	312336.0	-2556.0	-5872496.0
16	14	28	23	994	74.0	267321.0	-1979.0	-5872071.0
16	14	28	23	994	75.0	254249.0	-2597.0	-5871424.0
16	14	28	23	994	76.0	288858.0	-2646.0	-5871616.0
16	14	28	23	995	77.0	392957.0	-2067.0	-5872471.0
16	14	28	23	995	78.0	472132.0	-1126.0	-5872136.0
16	14	28	23	995	79.0	486098.0	-203.0	-5871504.0
16	14	28	23	996	80.0	459473.0	-162.0	-5871147.0
16	14	28	23	996	81.0	404099.0	-521.0	-5872136.0
16	14	28	23	996	82.0	294829.0	-915.0	-5872449.0
16	14	28	23	996	83.0	121301.0	-1314.0	-5871761.0
16	14	28	23	997	84.0	-67770.0	-1067.0	-5871164.0
16	14	28	23	997	85.0	-265097.0	-327.0	-5871227.0
16	14	28	23	997	86.0	-454697.0	513.0	-5872445.0
16	14	28	23	997	87.0	-572406.0	1401.0	-5872116.0
16	14	28	23	998	88.0	-579157.0	2328.0	-5871543.0
16	14	28	23	998	89.0	-478429.0	3224.0	-5870978.0
16	14	28	23	998	90.0	-327207.0	2748.0	-5871211.0
16	14	28	23	999	91.0	-169809.0	2577.0	-5871516.0
16	14	28	23	999	92.0	-32275.0	2890.0	-5871058.0
16	14	28	23	999	93.0	70065.0	3586.0	-5871383.0
16	14	28	23	999	94.0	131099.0	3742.0	-5872522.0
16	14	28	24	0	95.0	138103.0	3880.0	-5872074.0
16	14	28	24	0	96.0	81856.0	4509.0	-5871532.0
16	14	28	24	0	97.0	-15696.0	4167.0	-5871002.0
16	14	28	24	149	98.0	-125164.0	3420.0	-5871969.0
16	14	28	24	149	99.0	-218146.0	3861.0	-5872522.0
16	14	28	24	150	100.0	-274806.0	5692.0	-5871969.0
16	14	28	24	150	101.0	-285377.0	6338.0	-5871361.0
16	14	28	24	150	102.0	-247364.0	6998.0	-5870997.0
16	14	28	24	150	103.0	-190484.0	7208.0	-5872200.0
16	14	28	24	151	104.0	-150096.0	6419.0	-5872470.0
16	14	28	24	151	105.0	-141432.0	5571.0	-5871869.0
16	14	28	24	151	106.0	-137662.0	4948.0	-5871321.0
16	14	28	24	151	107.0	-125172.0	5051.0	-5872213.0
16	14	28	24	152	108.0	-114610.0	6127.0	-5872942.0
16	14	28	24	152	109.0	-108458.0	6494.0	-5872382.0
16	14	28	24	152	110.0	-115145.0	7474.0	-5871791.0
16	14	28	24	152	111.0	-112297.0	7001.0	-5871541.0
16	14	28	24	152	112.0	-92140.0	6206.0	-5872879.0
16	14	28	24	153	113.0	-59266.0	5766.0	-5873042.0
16	14	28	24	153	114.0	-27239.0	6026.0	-5872421.0
16	14	28	24	153	115.0	2642.0	7609.0	-5871831.0
16	14	28	24	153	116.0	34546.0	8252.0	-5871557.0
16	14	28	24	154	117.0	65159.0	8636.0	-5873019.0
16	14	28	24	154	118.0	85769.0	8334.0	-5873041.0
16	14	28	24	154	119.0	82183.0	7905.0	-5872539.0
16	14	28	24	154	120.0	70950.0	6891.0	-5871898.0
16	14	28	24	155	121.0	67150.0	6678.0	-5872214.0
16	14	28	24	155	122.0	69637.0	7323.0	-5873379.0
16	14	28	24	155	123.0	70498.0	7124.0	-5873071.0
16	14	28	24	155	124.0	68176.0	7034.0	-5872407.0
16	14	28	24	156	125.0	61216.0	7605.0	-5872557.0
16	14	28	24	156	126.0	71353.0	7665.0	-5873658.0
16	14	28	24	156	127.0	100660.0	7494.0	-5873373.0
16	14	28	24	156	128.0	142851.0	6970.0	-5872744.0
16	14	28	24	157	129.0	191217.0	7636.0	-5872288.0
16	14	28	24	157	130.0	237411.0	8283.0	-5872827.0
16	14	28	24	157	131.0	280431.0	8683.0	-5873570.0
16	14	28	24	157	132.0	326908.0	9516.0	-5872951.0
16	14	28	24	157	133.0	372550.0	9260.0	-5872416.0
16	14	28	24	158	134.0	403894.0	8800.0	-5871941.0
16	14	28	24	158	135.0	408974.0	7159.0	-5872581.0
16	14	28	24	158	136.0	406660.0	6815.0	-5872541.0
16	14	28	24	158	137.0	413005.0	8528.0	-5871998.0
16	14	28	24	158	138.0	411103.0	9108.0	-5871644.0
16	14	28	24	159	139.0	423314.0	9381.0	-5872514.0
16	14	28	24	159	140.0	403630.0	9608.0	-5872314.0
16	14	28	24	159	141.0	300414.0	9620.0	-5871809.0
16	14	28	24	159	142.0	183433.0	9166.0	-5872453.0
16	14	28	24	160	143.0	67096.0	8460.0	-5873086.0
16	14	28	24	160	144.0	-25103.0	8868.0	-5872474.0
16	14	28	24	160	145.0	-73767.0	9351.0	-5871894.0
16	14	28	24	160	146.0	-119680.0	10653.0	-5871734.0
16	14	28	24	161	147.0	-154006.0	11785.0	-5872434.0
16	14	28	24	161	148.0	-168817.0	12251.0	-5872016.0
16	14	28	24	161	149.0	-171064.0	12324.0	-5871453.0
16	14	28	24	162	150.0	-149768.0	12008.0	-5871322.0
16	14	28	24	162	151.0	-103498.0	12715.0	-5872079.0
16	14	28	24	162	152.0	-49989.0	14230.0	-5871717.0
16	14	28	24	163	153.0	-3057.0	16044.0	-5871142.0
16	14	28	24	163	154.0	47938.0	18199.0	-5871547.0
16	14	28	24	163	155.0	105891.0	19831.0	-5872529.0
16	14	28	24	163	156.0	173710.0	21486.0	-5872072.0
16	14	28	24	164	157.0	229554.0	23099.0	-5871474.0
16	14	28	24	164	158.0	245628.0	24691.0	-5871478.0
16	14	28	24	164	159.0	226374.0	26988.0	-5872811.0
16	14	28	24	164	160.0	204633.0	30192.0	-5872537.0
16	14	28	24	165	161.0	198849.0	33778.0	-5871926.0
16	14	28	24	165	162.0	186520.0	35846.0	-5871319.0
16	14	28	24	165	163.0	169753.0	38526.0	-5871643.0
16	14	28	24	165	164.0	135248.0	40887.0	-5872544.0
16	14	28	24	166	165.0	78993.0	43103.0	-5872127.0
16	14	28	24	166	166.0	34680.0	46171.0	-5871461.0
16	14	28	24	166	167.0	21708.0	50210.0	-5871195.0
16	14	28	24	167	168.0	34503.0	54199.0	-5872232.0
16	14	28	24	167	169.0	63239.0	57344.0	-5872346.0
16	14	28	24	167	170.0	152073.0	60209.0	-5871736.0
16	14	28	24	167	171.0	534908.0	62798.0	-5871319.0
16	14	28	24	168	172.0	843043.0	66325.0	-5872051.0
16	14	28	24	168	173.0	617104.0	68829.0	-5872514.0
16	14	28	24	168	174.0	283650.0	71394.0	-5871869.0
16	14	28	24	169	175.0	15113.0	74178.0	-5871314.0
16	14	28	24	169	176.0	-229570.0	76673.0	-5871829.0
16	14	28	24	169	177.0	-423183.0	78836.0	-5872782.0
16	14	28	24	169	178.0	-552246.0	81650.0	-5872179.0
16	14	28	24	170	179.0	-580464.0	84391.0	-5871614.0
16	14	28	24	170	180.0	-556366.0	85533.0	-5871014.0
16	14	28	24	170	181.0	-549014.0	87102.0	-5871970.0
16	14	28	24	170	182.0	-514033.0	89240.0	-5872727.0
16	14	28	24	171	183.0	-412532.0	91126.0	-5872231.0
16	14	28	24	171	184.0	-309201.0	92975.0	-5871564.0
16	14	28	24	172	185.0	-216762.0	93986.0	-5871679.0
16	14	28	24	172	186.0	-121514.0	95983.0	-5872726.0
16	14	28	24	317	187.0	-48809.0	96826.0	-5872451.0
16	14	28	24	318	188.0	-22039.0	97208.0	-5871800.0
16	14	28	24	318	189.0	-31675.0	98154.0	-5871484.0
16	14	28	24	318	190.0	-16399.0	97614.0	-5872677.0
16	14	28	24	318	191.0	51198.0	97211.0	-5873001.0
16	14	28	24	319	192.0	122136.0	96649.0	-5872335.0
16	14	28	24	319	193.0	154298.0	96521.0	-5871817.0
16	14	28	24	319	194.0	163581.0	96554.0	-5872302.0
16	14	28	24	320	195.0	160371.0	95268.0	-5873162.0
16	14	28	24	320	196.0	127498.0	93996.0	-5872621.0
16	14	28	24	320	197.0	90196.0	92716.0	-5872052.0
16	14	28	24	320	198.0	34570.0	91404.0	-5871502.0
16	14	28	24	321	199.0	-12984.0	89852.0	-5872073.0
16	14	28	24	321	200.0	-23922.0	87255.0	-5872729.0
16	14	28	24	321	201.0	-23624.0	85006.0	-5872201.0
16	14	28	24	321	202.0	-64274.0	82206.0	-5871619.0
16	14	28	24	321	203.0	-200947.0	79029.0	-5872299.0
16	14	28	24	322	204.0	-385694.0	76170.0	-5872865.0
16	14	28	24	322	205.0	-410621.0	74177.0	-5872334.0
16	14	28	24	322	206.0	-141322.0	72047.0	-5871744.0
16	14	28	24	322	207.0	308059.0	69419.0	-5871766.0
16	14	28	24	323	208.0	731994.0	66901.0	-5873080.0
16	14	28	24	323	209.0	943517.0	64488.0	-5872856.0
16	14	28	24	323	210.0	860356.0	60817.0	-5872272.0
16	14	28	24	323	211.0	587491.0	57720.0	-5871624.0
16	14	28	24	324	212.0	327513.0	54775.0	-5872186.0
16	14	28	24	324	213.0	148697.0	52383.0	-5872966.0
16	14	28	24	324	214.0	1766.0	49447.0	-5872468.0
16	14	28	24	324	215.0	-138804.0	46119.0	-5871783.0
16	14	28	24	325	216.0	-243571.0	43166.0	-5871626.0
16	14	28	24	325	217.0	-257154.0	40073.0	-5872649.0
16	14	28	24	325	218.0	-173576.0	36317.0	-5872573.0
16	14	28	24	325	219.0	-19971.0	33609.0	-5871976.0
16	14	28	24	326	220.0	114859.0	31704.0	-5871669.0
16	14	28	24	326	221.0	179659.0	29337.0	-5872719.0
16	14	28	24	326	222.0	213420.0	26861.0	-5872965.0
16	14	28	24	326	223.0	206977.0	24418.0	-5872332.0
16	14	28	24	327	224.0	148371.0	21659.0	-5871876.0
16	14	28	24	327	225.0	55104.0	18934.0	-5872682.0
16	14	28	24	327	226.0	-109502.0	16448.0	-5873244.0
16	14	28	24	328	227.0	-347546.0	14601.0	-5872566.0
16	14	28	24	328	228.0	-553867.0	12490.0	-5872013.0
16	14	28	24	328	229.0	-651754.0	9531.0	-5871532.0
16	14	28	24	328	230.0	-633331.0	5866.0	-5872621.0
16	14	28	24	329	231.0	-541691.0	3451.0	-5872756.0
16	14	28	24	329	232.0	-389956.0	921.0	-5872252.0
16	14	28	24	329	233.0	-219081.0	-2108.0	-5871606.0
16	14	28	24	330	234.0	-76594.0	-4297.0	-5871871.0
16	14	28	24	330	235.0	20621.0	-6409.0	-5872952.0
16	14	28	24	330	236.0	71537.0	-8253.0	-5872622.0
16	14	28	24	331	237.0	96109.0	-9970.0	-5871974.0
16	14	28	24	331	238.0	113964.0	-11025.0	-5871643.0
16	14	28	24	331	239.0	140924.0	-12544.0	-5872656.0
16	14	28	24	331	240.0	179167.0	-14629.0	-5872912.0
16	14	28	24	332	241.0	217089.0	-16170.0	-5872300.0
16	14	28	24	332	242.0	249288.0	-18131.0	-5871776.0
16	14	28	24	332	243.0	270438.0	-20402.0	-5872329.0
16	14	28	24	333	244.0	302296.0	-22487.0	-5873068.0
16	14	28	24	333	245.0	333792.0	-23706.0	-5872516.0
16	14	28	24	333	246.0	355446.0	-24486.0	-5871951.0
16	14	28	24	334	247.0	371259.0	-25653.0	-5871584.0
16	14	28	24	334	248.0	376384.0	-27651.0	-5872771.0
16	14	28	24	334	249.0	366646.0	-28947.0	-5872997.0
16	14	28	24	334	250.0	336325.0	-29971.0	-5872406.0
16	14	28	24	335	251.0	283294.0	-30615.0	-5871885.0
16	14	28	24	335	252.0	223416.0	-31495.0	-5872352.0
16	14	28	24	335	253.0	162486.0	-33767.0	-5872687.0
16	14	28	24	335	254.0	96602.0	-35042.0	-5872166.0
16	14	28	24	336	255.0	30023.0	-37373.0	-5871634.0
16	14	28	24	336	0.0	-32631.0	-38588.0	-5872292.0
16	14	28	24	336	1.0	-94772.0	-39144.0	-5872456.0
16	14	28	24	336	2.0	-142959.0	-40211.0	-5871922.0
16	14	28	24	337	3.0	-172665.0	-41356.0	-5871242.0
16	14	28	24	337	4.0	-186635.0	-41845.0	-5871562.0
16	14	28	24	337	5.0	-189009.0	-43162.0	-5872517.0
16	14	28	24	338	6.0	-176211.0	-44895.0	-5872127.0
16	14	28	24	338	7.0	-162932.0	-46237.0	-5871484.0
16	14	28	24	338	8.0	-158269.0	-47160.0	-5871526.0
16	14	28	24	339	9.0	-152738.0	-47129.0	-5872747.0
16	14	28	24	339	10.0	-132940.0	-47367.0	-5872567.0
16	14	28	24	339	11.0	-88702.0	-47782.0	-5871976.0
16	14	28	24	493	12.0	-41101.0	-47791.0	-5871497.0
16	14	28	24	493	13.0	-1861.0	-47342.0	-5872134.0
16	14	28	24	494	14.0	26878.0	-47905.0	-5872931.0
16	14	28	24	494	15.0	45618.0	-47571.0	-5872347.0
16	14	28	24	494	16.0	62019.0	-46763.0	-5871760.0
16	14	28	24	494	17.0	89349.0	-46432.0	-5871814.0
16	14	28	24	495	18.0	139206.0	-47014.0	-5872915.0
16	14	28	24	495	19.0	193188.0	-46577.0	-5872498.0
16	14	28	24	495	20.0	272009.0	-46647.0	-5871891.0
16	14	28	24	496	21.0	401920.0	-46621.0	-5871364.0
16	14	28	24	496	22.0	631876.0	-46437.0	-5871872.0
16	14	28	24	496	23.0	928646.0	-46404.0	-5872947.0
16	14	28	24	496	24.0	962299.0	-46574.0	-5872468.0
16	14	28	24	496	25.0	829086.0	-45867.0	-5871891.0
16	14	28	24	497	26.0	697693.0	-45031.0	-5871581.0
16	14	28	24	497	27.0	532906.0	-44370.0	-5872810.0
16	14	28	24	497	28.0	330870.0	-43589.0	-5872786.0
16	14	28	24	497	29.0	132003.0	-43995.0	-5872154.0
16	14	28	24	498	30.0	-24789.0	-43585.0	-5871791.0
16	14	28	24	498	31.0	-131746.0	-42921.0	-5872857.0
16	14	28	24	498	32.0	-199392.0	-42337.0	-5872881.0
16	14	28	24	498	33.0	-236848.0	-41194.0	-5872312.0
16	14	28	24	499	34.0	-250376.0	-40297.0	-5871672.0
16	14	28	24	499	35.0	-240439.0	-38989.0	-5871723.0
16	14	28	24	499	36.0	-202637.0	-38010.0	-5872703.0
16	14	28	24	499	37.0	-159444.0	-35962.0	-5872412.0
16	14	28	24	500	38.0	-118742.0	-35021.0	-5871743.0
16	14	28	24	500	39.0	-73376.0	-34417.0	-5871360.0
16	14	28	24	500	40.0	-29735.0	-33225.0	-5872234.0
16	14	28	24	500	41.0	2030.0	-32061.0	-5872543.0
16	14	28	24	501	42.0	16607.0	-31699.0	-5871915.0
16	14	28	24	501	43.0	25068.0	-31120.0	-5871397.0
16	14	28	24	501	44.0	26293.0	-30763.0	-5871654.0
16	14	28	24	502	45.0	15177.0	-29944.0	-5872694.0
16	14	28	24	502	46.0	-7302.0	-29336.0	-5872181.0
16	14	28	24	502	47.0	-32586.0	-28178.0	-5871626.0
16	14	28	24	503	48.0	-58997.0	-26505.0	-5871218.0
16	14	28	24	503	49.0	-65608.0	-25271.0	-5872067.0
16	14	28	24	503	50.0	-98170.0	-24132.0	-5871926.0
16	14	28	24	503	51.0	-183094.0	-24087.0	-5871375.0
16	14	28	24	504	52.0	-227228.0	-23874.0	-5870965.0
16	14	28	24	504	53.0	-229497.0	-22243.0	-5872272.0
16	14	28	24	504	54.0	-237318.0	-20799.0	-5872364.0
16	14	28	24	505	55.0	-238521.0	-20047.0	-5871840.0
16	14	28	24	505	56.0	-190537.0	-19101.0	-5871197.0
16	14	28	24	505	57.0	-96202.0	-17987.0	-5871691.0
16	14	28	24	505	58.0	-3054.0	-17296.0	-5872573.0
16	14	28	24	506	59.0	65834.0	-17359.0	-5872174.0
16	14	28	24	506	60.0	116104.0	-16432.0	-5871536.0
16	14	28	24	506	61.0	149833.0	-14848.0	-5871666.0
16	14	28	24	507	62.0	156605.0	-13991.0	-5873054.0
16	14	28	24	507	63.0	138819.0	-12922.0	-5872915.0
16	14	28	24	507	64.0	108108.0	-12247.0	-5872256.0
16	14	28	24	507	65.0	79039.0	-12576.0	-5871739.0
16	14	28	24	508	66.0	53396.0	-13440.0	-5872297.0
16	14	28	24	508	67.0	34812.0	-13769.0	-5873017.0
16	14	28	24	508	68.0	25911.0	-12694.0	-5872426.0
16	14	28	24	508	69.0	24253.0	-11993.0	-5871859.0
16	14	28	24	508	70.0	30234.0	-12107.0	-5871625.0
16	14	28	24	509	71.0	31418.0	-12200.0	-5872966.0
16	14	28	24	509	72.0	24978.0	-12667.0	-5872975.0
16	14	28	24	509	73.0	15490.0	-12692.0	-5872401.0
16	14	28	24	509	74.0	6845.0	-13631.0	-5871822.0
16	14	28	24	510	75.0	-4561.0	-13854.0	-5872272.0
16	14	28	24	510	76.0	-21751.0	-13971.0	-5873199.0
16	14	28	24	510	77.0	-33852.0	-13124.0	-5872752.0
16	14	28	24	510	78.0	-39041.0	-12166.0	-5872111.0
16	14	28	24	511	79.0	-40452.0	-11616.0	-5872091.0
16	14	28	24	511	80.0	-40788.0	-10665.0	-5873269.0
16	14	28	24	511	81.0	-40726.0	-10949.0	-5873024.0
16	14	28	24	511	82.0	-42555.0	-11400.0	-5872416.0
16	14	28	24	512	83.0	-51926.0	-10317.0	-5871871.0
16	14	28	24	512	84.0	-62679.0	-9336.0	-5872649.0
16	14	28	24	512	85.0	-68921.0	-10039.0	-5873292.0
16	14	28	24	513	86.0	-70759.0	-10995.0	-5872743.0
16	14	28	24	513	87.0	-64014.0	-11334.0	-5872123.0
16	14	28	24	513	88.0	-55638.0	-12455.0	-5872208.0
16	14	28	24	514	89.0	-39421.0	-13488.0	-5873296.0
16	14	28	24	514	90.0	-22181.0	-13780.0	-5872989.0
16	14	28	24	514	91.0	-5214.0	-12923.0	-5872406.0
16	14	28	24	514	92.0	13821.0	-12315.0	-5871886.0
16	14	28	24	515	93.0	43296.0	-12810.0	-5872592.0
16	14	28	24	515	94.0	76674.0	-13066.0	-5873196.0
16	14	28	24	515	95.0	104683.0	-13699.0	-5872626.0
16	14	28	24	515	96.0	133354.0	-14742.0	-5872060.0
16	14	28	24	516	97.0	155203.0	-15537.0	-5872057.0
16	14	28	24	516	98.0	181558.0	-14681.0	-5872608.0
16	14	28	24	516	99.0	215006.0	-13736.0	-5872095.0
16	14	28	24	517	100.0	246494.0	-14010.0	-5871552.0
16	14	28	24	517	101.0	276113.0	-13654.0	-5871676.0
16	14	28	24	517	102.0	296938.0	-13234.0	-5872406.0
16	14	28	24	518	103.0	306076.0	-12501.0	-5871957.0
16	14	28	24	662	104.0	301558.0	-13367.0	-5871363.0
16	14	28	24	662	105.0	279423.0	-13746.0	-5871971.0
16	14	28	24	663	106.0	244201.0	-13187.0	-5872934.0
16	14	28	24	663	107.0	195783.0	-12529.0	-5872457.0
16	14	28	24	663	108.0	141947.0	-13287.0	-5871847.0
16	14	28	24	664	109.0	95225.0	-13811.0	-5871768.0
16	14	28	24	664	110.0	63110.0	-13731.0	-5872968.0
16	14	28	24	664	111.0	29419.0	-14304.0	-5872781.0
16	14	28	24	664	112.0	-7492.0	-14463.0	-5872166.0
16	14	28	24	665	113.0	-22091.0	-14528.0	-5871596.0
16	14	28	24	665	114.0	-23402.0	-13739.0	-5872174.0
16	14	28	24	665	115.0	-27457.0	-13344.0	-5872772.0
16	14	28	24	666	116.0	-45425.0	-13441.0	-5872271.0
16	14	28	24	666	117.0	-68692.0	-13764.0	-5871633.0
16	14	28	24	666	118.0	-84901.0	-14294.0	-5871510.0
16	14	28	24	666	119.0	-106336.0	-15146.0	-5872746.0
16	14	28	24	667	120.0	-129660.0	-14731.0	-5872703.0
16	14	28	24	667	121.0	-158804.0	-13355.0	-5872090.0
16	14	28	24	667	122.0	-185897.0	-12276.0	-5871610.0
16	14	28	24	667	123.0	-212207.0	-11173.0	-5872206.0
16	14	28	24	668	124.0	-243206.0	-11015.0	-5872967.0
16	14	28	24	668	125.0	-264314.0	-11136.0	-5872404.0
16	14	28	24	668	126.0	-274361.0	-11658.0	-5871873.0
16	14	28	24	669	127.0	-272342.0	-12154.0	-5871686.0
16	14	28	24	669	128.0	-260758.0	-11867.0	-5872864.0
16	14	28	24	669	129.0	-246875.0	-10864.0	-5872595.0
16	14	28	24	669	130.0	-219887.0	-10856.0	-5872031.0
16	14	28	24	670	131.0	-178298.0	-11325.0	-5871374.0
16	14	28	24	670	132.0	-132136.0	-11266.0	-5871932.0
16	14	28	24	670	133.0	-90292.0	-11619.0	-5872631.0
16	14	28	24	670	134.0	-61111.0	-11977.0	-5872154.0
16	14	28	24	671	135.0	-36461.0	-11859.0	-5871496.0
16	14	28	24	672	136.0	-13701.0	-10828.0	-5871554.0
16	14	28	24	672	137.0	10823.0	-10891.0	-5872729.0
16	14	28	24	672	138.0	37638.0	-10462.0	-5872529.0
16	14	28	24	673	139.0	61218.0	-9992.0	-5871926.0
16	14	28	24	673	140.0	82897.0	-9408.0	-5871652.0
16	14	28	24	673	141.0	101643.0	-9802.0	-5872776.0
16	14	28	24	674	142.0	118679.0	-9679.0	-5872924.0
16	14	28	24	674	143.0	130589.0	-8927.0	-5872289.0
16	14	28	24	674	144.0	131590.0	-6999.0	-5871752.0
16	14	28	24	674	145.0	129649.0	-6421.0	-5871904.0
16	14	28	24	675	146.0	121238.0	-7051.0	-5873071.0
16	14	28	24	675	147.0	120231.0	-7107.0	-5872601.0
16	14	28	24	675	148.0	124057.0	-7217.0	-5871981.0
16	14	28	24	676	149.0	124968.0	-7795.0	-5871413.0
16	14	28	24	676	150.0	114941.0	-7814.0	-5871949.0
16	14	28	24	676	151.0	97547.0	-7132.0	-5872390.0
16	14	28	24	676	152.0	88882.0	-7169.0	-5871886.0
16	14	28	24	677	153.0	79130.0	-7012.0	-5871317.0
16	14	28	24	677	154.0	84996.0	-6307.0	-5871759.0
16	14	28	24	677	155.0	124354.0	-6525.0	-5871973.0
16	14	28	24	678	156.0	172523.0	-7311.0	-5871489.0
16	14	28	24	678	157.0	158498.0	-7784.0	-5872022.0
16	14	28	24	678	158.0	60469.0	-7167.0	-5872993.0
16	14	28	24	678	159.0	-66955.0	-6364.0	-5872416.0
16	14	28	24	679	160.0	-163909.0	-5475.0	-5871877.0
16	14	28	24	679	161.0	-198602.0	-4648.0	-5871419.0
16	14	28	24	679	162.0	-197753.0	-4357.0	-5872598.0
16	14	28	24	679	163.0	-198673.0	-4639.0	-5872922.0
16	14	28	24	680	164.0	-187162.0	-4495.0	-5872389.0
16	14	28	24	680	165.0	-124835.0	-3699.0	-5871711.0
16	14	28	24	680	166.0	-8302.0	-1982.0	-5871471.0
16	14	28	24	681	167.0	128241.0	-982.0	-5872397.0
16	14	28	24	681	168.0	264274.0	-274.0	-5872250.0
16	14	28	24	682	169.0	384409.0	-284.0	-5871649.0
16	14	28	24	682	170.0	506314.0	-530.0	-5871238.0
16	14	28	24	682	171.0	633855.0	-699.0	-5872285.0
16	14	28	24	682	172.0	716670.0	261.0	-5872796.0
16	14	28	24	683	173.0	649428.0	737.0	-5872213.0
16	14	28	24	683	174.0	401399.0	196.0	-5871651.0
16	14	28	24	683	175.0	78812.0	142.0	-5872080.0
16	14	28	24	684	176.0	-178915.0	906.0	-5873074.0
16	14	28	24	684	177.0	-409971.0	1132.0	-5872575.0
16	14	28	24	684	178.0	-626965.0	971.0	-5871949.0
16	14	28	24	684	179.0	-709428.0	349.0	-5871539.0
16	14	28	24	685	180.0	-642399.0	1117.0	-5872604.0
16	14	28	24	685	181.0	-488189.0	1601.0	-5872825.0
16	14	28	24	685	182.0	-279243.0	1854.0	-5872212.0
16	14	28	24	686	183.0	-41576.0	2821.0	-5871682.0
16	14	28	24	686	184.0	167322.0	4154.0	-5871733.0
16	14	28	24	868	185.0	302773.0	4284.0	-5872909.0
16	14	28	24	868	186.0	352008.0	4015.0	-5872545.0
16	14	28	24	869	187.0	327318.0	4786.0	-5871983.0
16	14	28	24	869	188.0	257928.0	5518.0	-5871715.0
16	14	28	24	869	189.0	154028.0	5809.0	-5873091.0
16	14	28	24	870	190.0	19344.0	5844.0	-5873092.0
16	14	28	24	870	191.0	-118932.0	5864.0	-5872511.0
16	14	28	24	870	192.0	-219394.0	5617.0	-5871874.0
16	14	28	24	871	193.0	-261109.0	5315.0	-5872093.0
16	14	28	24	871	194.0	-249177.0	4872.0	-5873084.0
16	14	28	24	871	195.0	-208550.0	4677.0	-5872732.0
16	14	28	24	871	196.0	-173519.0	5366.0	-5872044.0
16	14	28	24	872	197.0	-149484.0	6345.0	-5871646.0
16	14	28	24	872	198.0	-141022.0	6868.0	-5872479.0
16	14	28	24	872	199.0	-150528.0	6809.0	-5872741.0
16	14	28	24	873	200.0	-164349.0	6628.0	-5872083.0
16	14	28	24	873	201.0	-169284.0	6256.0	-5871589.0
16	14	28	24	873	202.0	-162061.0	6380.0	-5871208.0
16	14	28	24	873	203.0	-147237.0	7553.0	-5872100.0
16	14	28	24	874	204.0	-124324.0	7913.0	-5872001.0
16	14	28	24	874	205.0	-94097.0	8303.0	-5871532.0
16	14	28	24	874	206.0	-64006.0	8864.0	-5872291.0
16	14	28	24	874	207.0	-46903.0	8733.0	-5873009.0
16	14	28	24	875	208.0	-55919.0	7957.0	-5872426.0
16	14	28	24	875	209.0	-83679.0	6904.0	-5871887.0
16	14	28	24	875	210.0	-123568.0	6943.0	-5871588.0
16	14	28	24	876	211.0	-166839.0	8122.0	-5872306.0
16	14	28	24	876	212.0	-211142.0	8533.0	-5871984.0
16	14	28	24	876	213.0	-240302.0	8144.0	-5871476.0
16	14	28	24	876	214.0	-252586.0	8338.0	-5871092.0
16	14	28	24	877	215.0	-259443.0	7838.0	-5872267.0
16	14	28	24	877	216.0	-260841.0	6941.0	-5872284.0
16	14	28	24	877	217.0	-231813.0	6946.0	-5871746.0
16	14	28	24	877	218.0	-182241.0	7409.0	-5871325.0
16	14	28	24	878	219.0	-130253.0	7246.0	-5872460.0
16	14	28	24	878	220.0	-77417.0	6929.0	-5872506.0
16	14	28	24	878	221.0	-29499.0	7212.0	-5871994.0
16	14	28	24	878	222.0	16889.0	7529.0	-5871343.0
16	14	28	24	879	223.0	60331.0	7434.0	-5871544.0
16	14	28	24	879	224.0	118861.0	7011.0	-5872739.0
16	14	28	24	879	225.0	184344.0	6756.0	-5872502.0
16	14	28	24	879	226.0	250339.0	6112.0	-5871840.0
16	14	28	24	880	227.0	305590.0	5933.0	-5871371.0
16	14	28	24	880	228.0	342037.0	6329.0	-5872105.0
16	14	28	24	880	229.0	358953.0	6569.0	-5872669.0
16	14	28	24	880	230.0	356889.0	6904.0	-5872054.0
16	14	28	24	881	231.0	346159.0	6294.0	-5871519.0
16	14	28	24	881	232.0	333551.0	6326.0	-5871458.0
16	14	28	24	882	233.0	318877.0	7438.0	-5872609.0
16	14	28	24	882	234.0	303051.0	8143.0	-5872266.0
16	14	28	24	882	235.0	274492.0	8563.0	-5871696.0
16	14	28	24	882	236.0	229891.0	8781.0	-5871241.0
16	14	28	24	883	237.0	179919.0	9857.0	-5872094.0
16	14	28	24	883	238.0	136558.0	10454.0	-5872045.0
16	14	28	24	883	239.0	105374.0	10353.0	-5871504.0
16	14	28	24	883	240.0	89574.0	11858.0	-5871235.0
16	14	28	24	884	241.0	81752.0	12548.0	-5872092.0
16	14	28	24	884	242.0	76887.0	13090.0	-5871808.0
16	14	28	24	884	243.0	67969.0	14764.0	-5871239.0
16	14	28	24	885	244.0	50829.0	16162.0	-5870951.0
16	14	28	24	885	245.0	25959.0	17425.0	-5871799.0
16	14	28	24	885	246.0	1681.0	18194.0	-5871531.0
16	14	28	24	885	247.0	-20867.0	19590.0	-5870976.0
16	14	28	24	886	248.0	-42817.0	21614.0	-5871139.0
16	14	28	24	886	249.0	-65962.0	25406.0	-5872251.0
16	14	28	24	886	250.0	-84661.0	28807.0	-5871801.0
16	14	28	24	886	251.0	-96595.0	31291.0	-5871254.0
16	14	28	24	887	252.0	-101696.0	34166.0	-5870792.0
16	14	28	24	887	253.0	-98887.0	37008.0	-5871806.0
16	14	28	24	887	254.0	-87308.0	39212.0	-5872199.0
16	14	28	24	888	255.0	-70500.0	42410.0	-5871659.0
16	14	28	24	888	0.0	-51126.0	47016.0	-5871027.0
16	14	28	24	888	1.0	-37524.0	51264.0	-5871601.0
16	14	28	24	889	2.0	-29384.0	54304.0	-5872394.0
16	14	28	24	890	3.0	-26752.0	56779.0	-5871912.0
16	14	28	24	890	4.0	-30032.0	59997.0	-5871244.0
16	14	28	24	890	5.0	-35873.0	62532.0	-5870793.0
16	14	28	24	891	6.0	-42241.0	65611.0	-5871549.0
16	14	28	24	891	7.0	-48021.0	69475.0	-5872318.0
16	14	28	24	891	8.0	-53410.0	73583.0	-5871699.0
16	14	28	24	892	9.0	-50986.0	76128.0	-5871159.0
16	14	28	24	892	10.0	-42776.0	78874.0	-5870729.0
16	14	28	24	892	11.0	-27171.0	81729.0	-5871366.0
16	14	28	24	892	12.0	-10466.0	83320.0	-5871122.0
16	14	28	24	893	13.0	7506.0	84866.0	-5870631.0
16	14	28	24	893	14.0	22871.0	87933.0	-5871306.0
16	14	28	24	893	15.0	38265.0	90421.0	-5871974.0
16	14	28	24	893	16.0	46896.0	92117.0	-5871379.0
16	14	28	24	894	17.0	47157.0	93578.0	-5870851.0
16	14	28	24	894	18.0	34822.0	94930.0	-5870260.0
16	14	28	24	894	19.0	13091.0	96106.0	-5871167.0
16	14	28	24	895	20.0	-10283.0	96676.0	-5871665.0
16	14	28	24	895	21.0	-21083.0	97561.0	-5871147.0
16	14	28	24	895	22.0	-11242.0	98977.0	-5870478.0
16	14	28	24	895	23.0	2856.0	100931.0	-5870947.0
16	14	28	24	896	24.0	35581.0	101677.0	-5872132.0
16	14	28	24	896	25.0	89159.0	102965.0	-5871812.0
16	14	28	24	896	26.0	129493.0	103232.0	-5871192.0
16	14	28	24	897	27.0	130663.0	102551.0	-5870849.0
16	14	28	24	897	28.0	111112.0	101113.0	-5871829.0
16	14	28	24	897	29.0	83593.0	100674.0	-5872185.0
16	14	28	24	897	30.0	57666.0	99877.0	-5871514.0
16	14	28	24	898	31.0	46701.0	98621.0	-5871002.0
16	14	28	24	898	32.0	66658.0	96621.0	-5871476.0
16	14	28	24	898	33.0	70919.0	94712.0	-5872400.0
16	14	28	24	899	34.0	63118.0	93362.0	-5871872.0
16	14	28	24	899	35.0	91575.0	90631.0	-5871319.0
16	14	28	24	899	36.0	138063.0	88101.0	-5870767.0
16	14	28	24	900	37.0	178304.0	86316.0	-5871706.0
16	14	28	24	900	38.0	195993.0	83906.0	-5872244.0
16	14	28	24	900	39.0	178233.0	81081.0	-5871692.0
16	14	28	25	103	40.0	92491.0	79030.0	-5871079.0
16	14	28	25	103	41.0	-74137.0	76819.0	-5871186.0
16	14	28	25	104	42.0	-220596.0	73800.0	-5872301.0
16	14	28	25	104	43.0	-240589.0	70256.0	-5872046.0
16	14	28	25	104	44.0	-56682.0	68260.0	-5871458.0
16	14	28	25	105	45.0	256400.0	66681.0	-5871082.0
16	14	28	25	105	46.0	541003.0	64463.0	-5872095.0
16	14	28	25	105	47.0	650038.0	62079.0	-5872584.0
16	14	28	25	106	48.0	479482.0	58830.0	-5871977.0
16	14	28	25	106	49.0	118812.0	55468.0	-5871407.0
16	14	28	25	106	50.0	-192249.0	51152.0	-5871782.0
16	14	28	25	106	51.0	-375666.0	47397.0	-5872701.0
16	14	28	25	107	52.0	-513892.0	44128.0	-5872180.0
16	14	28	25	107	53.0	-660527.0	41521.0	-5871573.0
16	14	28	25	107	54.0	-794023.0	38404.0	-5871000.0
16	14	28	25	107	55.0	-822554.0	35809.0	-5871289.0
16	14	28	25	108	56.0	-695237.0	32691.0	-5871842.0
16	14	28	25	108	57.0	-469612.0	29129.0	-5871379.0
16	14	28	25	108	58.0	-245588.0	25791.0	-5870933.0
16	14	28	25	109	59.0	-89706.0	22898.0	-5871537.0
16	14	28	25	109	60.0	5919.0	20565.0	-5871555.0
16	14	28	25	109	61.0	76006.0	17951.0	-5871041.0
16	14	28	25	109	62.0	40677.0	15106.0	-5871283.0
16	14	28	25	110	63.0	-92937.0	11919.0	-5872351.0
16	14	28	25	110	64.0	-230134.0	9536.0	-5871844.0
16	14	28	25	110	65.0	-302098.0	6383.0	-5871302.0
16	14	28	25	111	66.0	-282007.0	3856.0	-5870656.0
16	14	28	25	111	67.0	-195089.0	2323.0	-5870763.0
16	14	28	25	111	68.0	-80736.0	759.0	-5871901.0
16	14	28	25	112	69.0	36429.0	-2200.0	-5871604.0
16	14	28	25	112	70.0	124416.0	-3586.0	-5870981.0
16	14	28	25	113	71.0	186583.0	-5140.0	-5870954.0
16	14	28	25	113	72.0	226656.0	-7342.0	-5872095.0
16	14	28	25	113	73.0	243790.0	-9585.0	-5871831.0
16	14	28	25	114	74.0	246778.0	-11724.0	-5871264.0
16	14	28	25	114	75.0	239181.0	-12686.0	-5870847.0
16	14	28	25	114	76.0	210376.0	-14226.0	-5871870.0
16	14	28	25	115	77.0	157114.0	-15733.0	-5872351.0
16	14	28	25	115	78.0	96896.0	-17151.0	-5871776.0
16	14	28	25	115	79.0	50398.0	-19197.0	-5871207.0
16	14	28	25	116	80.0	23561.0	-21732.0	-5871600.0
16	14	28	25	116	81.0	26259.0	-23451.0	-5872712.0
16	14	28	25	117	82.0	43626.0	-24938.0	-5872309.0
16	14	28	25	117	83.0	71184.0	-26307.0	-5871685.0
16	14	28	25	117	84.0	106342.0	-27381.0	-5871164.0
16	14	28	25	118	85.0	143247.0	-29429.0	-5871448.0
16	14	28	25	118	86.0	181736.0	-30531.0	-5872512.0
16	14	28	25	118	87.0	213592.0	-32124.0	-5872032.0
16	14	28	25	119	88.0	250373.0	-34342.0	-5871499.0
16	14	28	25	119	89.0	281775.0	-35687.0	-5871228.0
16	14	28	25	119	90.0	290596.0	-36406.0	-5872621.0
16	14	28	25	120	91.0	269881.0	-37666.0	-5872651.0
16	14	28	25	120	92.0	229766.0	-39167.0	-5872119.0
16	14	28	25	121	93.0	178726.0	-40765.0	-5871586.0
16	14	28	25	121	94.0	129288.0	-41538.0	-5872488.0
16	14	28	25	121	95.0	103350.0	-43753.0	-5872986.0
16	14	28	25	122	96.0	105971.0	-44542.0	-5872510.0
16	14	28	25	122	97.0	119513.0	-44139.0	-5871864.0
16	14	28	25	123	98.0	126586.0	-44519.0	-5871909.0
16	14	28	25	123	99.0	118211.0	-45972.0	-5872997.0
16	14	28	25	124	100.0	87234.0	-47052.0	-5872786.0
16	14	28	25	124	101.0	41876.0	-47675.0	-5872079.0
16	14	28	25	124	102.0	-5568.0	-48738.0	-5871642.0
16	14	28	25	125	103.0	-41266.0	-50506.0	-5872561.0
16	14	28	25	125	104.0	-58621.0	-51257.0	-5873238.0
16	14	28	25	126	105.0	-63133.0	-50662.0	-5872616.0
16	14	28	25	126	106.0	-58437.0	-50837.0	-5872076.0
16	14	28	25	126	107.0	-60536.0	-51684.0	-5871676.0
16	14	28	25	127	108.0	-59648.0	-52392.0	-5872453.0
16	14	28	25	127	109.0	-49482.0	-52776.0	-5872360.0
16	14	28	25	128	110.0	-35864.0	-53861.0	-5871849.0
16	14	28	25	128	111.0	-16587.0	-53999.0	-5872299.0
16	14	28	25	128	112.0	6193.0	-52904.0	-5873377.0
16	14	28	25	129	113.0	25261.0	-52021.0	-5872834.0
16	14	28	25	129	114.0	42289.0	-51906.0	-5872299.0
16	14	28	25	129	115.0	55353.0	-52337.0	-5871641.0
16	14	28	25	130	116.0	61922.0	-52371.0	-5871960.0
16	14	28	25	130	117.0	57459.0	-52751.0	-5873127.0
16	14	28	25	130	118.0	49063.0	-53190.0	-5872802.0
16	14	28	25	131	119.0	39473.0	-52850.0	-5872124.0
16	14	28	25	131	120.0	35511.0	-51294.0	-5871998.0
16	14	28	25	131	121.0	40321.0	-50109.0	-5873255.0
16	14	28	25	132	122.0	60999.0	-48794.0	-5873222.0
16	14	28	25	132	123.0	87123.0	-46907.0	-5872618.0
16	14	28	25	132	124.0	106842.0	-45790.0	-5872090.0
16	14	28	25	133	125.0	111123.0	-46289.0	-5872549.0
16	14	28	25	133	126.0	89999.0	-45271.0	-5873651.0
16	14	28	25	134	127.0	50134.0	-44069.0	-5873117.0
16	14	28	25	134	128.0	9633.0	-43760.0	-5872541.0
16	14	28	25	134	129.0	-25921.0	-43132.0	-5872196.0
16	14	28	25	134	130.0	-55326.0	-41698.0	-5873467.0
16	14	28	25	135	131.0	-76056.0	-40696.0	-5873540.0
16	14	28	25	135	132.0	-89515.0	-40323.0	-5872894.0
16	14	28	25	135	133.0	-94981.0	-40041.0	-5872314.0
16	14	28	25	136	134.0	-93076.0	-39113.0	-5872084.0
16	14	28	25	136	135.0	-93282.0	-37246.0	-5873462.0
16	14	28	25	136	136.0	-96819.0	-36113.0	-5873476.0
16	14	28	25	137	137.0	-107657.0	-35307.0	-5872919.0
16	14	28	25	137	138.0	-126957.0	-34664.0	-5872395.0
16	14	28	25	137	139.0	-155376.0	-33871.0	-5873436.0
16	14	28	25	137	140.0	-192062.0	-33361.0	-5874049.0
16	14	28	25	138	141.0	-225711.0	-32244.0	-5873519.0
16	14	28	25	138	142.0	-246917.0	-30273.0	-5872905.0
16	14	28	25	138	143.0	-247299.0	-29067.0	-5872355.0
16	14	28	25	139	144.0	-237310.0	-28094.0	-5872266.0
16	14	28	25	139	145.0	-219704.0	-26845.0	-5873119.0
16	14	28	25	139	146.0	-200596.0	-25034.0	-5872749.0
16	14	28	25	140	147.0	-179482.0	-24491.0	-5872169.0
16	14	28	25	140	148.0	-161442.0	-23609.0	-5871964.0
16	14	28	25	140	149.0	-137189.0	-22216.0	-5873254.0
16	14	28	25	140	150.0	-100245.0	-21046.0	-5873094.0
16	14	28	25	141	151.0	-45914.0	-20951.0	-5872536.0
16	14	28	25	141	152.0	2569.0	-20843.0	-5872016.0
16	14	28	25	141	153.0	35831.0	-20128.0	-5872896.0
16	14	28	25	142	154.0	59398.0	-19821.0	-5873199.0
16	14	28	25	142	155.0	87232.0	-20238.0	-5872715.0
16	14	28	25	142	156.0	123511.0	-19774.0	-5872106.0
16	14	28	25	143	157.0	163661.0	-17558.0	-5872296.0
16	14	28	25	308	158.0	199203.0	-16654.0	-5873192.0
16	14	28	25	309	159.0	223744.0	-17005.0	-5872809.0
16	14	28	25	309	160.0	248629.0	-16649.0	-5872147.0
16	14	28	25	309	161.0	276249.0	-16479.0	-5872223.0
16	14	28	25	310	162.0	292975.0	-16809.0	-5873437.0
16	14	28	25	310	163.0	292573.0	-16791.0	-5873220.0
16	14	28	25	310	164.0	277926.0	-16520.0	-5872543.0
16	14	28	25	311	165.0	258071.0	-15416.0	-5872007.0
16	14	28	25	311	166.0	238162.0	-14886.0	-5871614.0
16	14	28	25	311	167.0	220622.0	-14619.0	-5872334.0
16	14	28	25	311	168.0	197885.0	-15086.0	-5872121.0
16	14	28	25	312	169.0	159123.0	-15353.0	-5871623.0
16	14	28	25	312	170.0	112573.0	-15732.0	-5872308.0
16	14	28	25	312	171.0	67359.0	-14962.0	-5873191.0
16	14	28	25	313	172.0	25828.0	-14068.0	-5872610.0
16	14	28	25	313	173.0	-24280.0	-13712.0	-5872055.0
16	14	28	25	313	174.0	-83237.0	-13461.0	-5871919.0
16	14	28	25	314	175.0	-132257.0	-13717.0	-5872916.0
16	14	28	25	314	176.0	-169546.0	-13501.0	-5872602.0
16	14	28	25	314	177.0	-196529.0	-14547.0	-5872058.0
16	14	28	25	315	178.0	-213187.0	-15066.0	-5872013.0
16	14	28	25	315	179.0	-223058.0	-15307.0	-5872401.0
16	14	28	25	315	180.0	-223862.0	-14716.0	-5871876.0
16	14	28	25	315	181.0	-225472.0	-14932.0	-5871327.0
16	14	28	25	316	182.0	-223707.0	-14587.0	-5871491.0
16	14	28	25	316	183.0	-209078.0	-14879.0	-5872090.0
16	14	28	25	316	184.0	-176959.0	-15891.0	-5871607.0
16	14	28	25	317	185.0	-137136.0	-16802.0	-5871011.0
16	14	28	25	317	186.0	-96158.0	-16531.0	-5871321.0
16	14	28	25	317	187.0	-59433.0	-15361.0	-5872351.0
16	14	28	25	318	188.0	-35434.0	-15414.0	-5871934.0
16	14	28	25	318	189.0	-26446.0	-15327.0	-5871349.0
16	14	28	25	318	190.0	-40599.0	-15589.0	-5871658.0
16	14	28	25	319	191.0	-75500.0	-15687.0	-5872911.0
16	14	28	25	319	192.0	-95569.0	-16579.0	-5872552.0
16	14	28	25	320	193.0	-117636.0	-16799.0	-5871980.0
16	14	28	25	320	194.0	-145618.0	-16070.0	-5871447.0
16	14	28	25	320	195.0	-137787.0	-14699.0	-5872105.0
16	14	28	25	321	196.0	-93394.0	-13707.0	-5872804.0
16	14	28	25	321	197.0	-30480.0	-13756.0	-5872318.0
16	14	28	25	321	198.0	35227.0	-14486.0	-5871651.0
16	14	28	25	322	199.0	93339.0	-15397.0	-5871609.0
16	14	28	25	322	200.0	138245.0	-16283.0	-5872842.0
16	14	28	25	322	201.0	169320.0	-16477.0	-5872705.0
16	14	28	25	323	202.0	186069.0	-15781.0	-5872027.0
16	14	28	25	323	203.0	190401.0	-15900.0	-5871756.0
16	14	28	25	323	204.0	187703.0	-16291.0	-5872831.0
16	14	28	25	324	205.0	183041.0	-16079.0	-5872964.0
16	14	28	25	324	206.0	174686.0	-15861.0	-5872354.0
16	14	28	25	324	207.0	169751.0	-16384.0	-5871822.0
16	14	28	25	325	208.0	176086.0	-16858.0	-5871719.0
16	14	28	25	325	209.0	182780.0	-16606.0	-5872482.0
16	14	28	25	325	210.0	185634.0	-15716.0	-5872037.0
16	14	28	25	326	211.0	181813.0	-15433.0	-5871494.0
16	14	28	25	326	212.0	174407.0	-15259.0	-5872261.0
16	14	28	25	326	213.0	165016.0	-15298.0	-5872807.0
16	14	28	25	327	214.0	157111.0	-15530.0	-5872204.0
16	14	28	25	327	215.0	150683.0	-15579.0	-5871684.0
16	14	28	25	327	216.0	144668.0	-14621.0	-5871269.0
16	14	28	25	328	217.0	129655.0	-12967.0	-5872434.0
16	14	28	25	328	218.0	96437.0	-12624.0	-5872591.0
16	14	28	25	328	219.0	44695.0	-13083.0	-5872061.0
16	14	28	25	329	220.0	-8904.0	-13579.0	-5871654.0
16	14	28	25	329	221.0	-59815.0	-13864.0	-5872837.0
16	14	28	25	329	222.0	-104106.0	-14250.0	-5873003.0
16	14	28	25	330	223.0	-138750.0	-13975.0	-5872475.0
16	14	28	25	330	224.0	-167971.0	-13905.0	-5871821.0
16	14	28	25	330	225.0	-183232.0	-13509.0	-5871767.0
16	14	28	25	332	226.0	-189366.0	-13437.0	-5873067.0
16	14	28	25	334	227.0	-191587.0	-13542.0	-5873039.0
16	14	28	25	335	228.0	-189254.0	-13689.0	-5872349.0
16	14	28	25	337	229.0	-181840.0	-14007.0	-5871909.0
16	14	28	25	338	230.0	-162299.0	-14284.0	-5872787.0
16	14	28	25	339	231.0	-137012.0	-14069.0	-5873424.0
16	14	28	25	341	232.0	-103605.0	-13369.0	-5872794.0
16	14	28	25	342	233.0	-71704.0	-12564.0	-5872267.0
16	14	28	25	343	234.0	-43367.0	-11317.0	-5871825.0
16	14	28	25	344	235.0	-18980.0	-10719.0	-5872706.0
16	14	28	25	345	236.0	259.0	-9869.0	-5872764.0
16	14	28	25	346	237.0	7944.0	-9921.0	-5872233.0
16	14	28	25	347	238.0	11238.0	-9422.0	-5871822.0
16	14	28	25	348	239.0	13039.0	-8097.0	-5872719.0
16	14	28	25	348	240.0	20173.0	-7142.0	-5872578.0
16	14	28	25	349	241.0	26218.0	-7241.0	-5872055.0
16	14	28	25	349	242.0	44245.0	-7695.0	-5872496.0
16	14	28	25	349	243.0	79019.0	-7359.0	-5873291.0
16	14	28	25	350	244.0	122695.0	-7446.0	-5872719.0
16	14	28	25	350	245.0	169193.0	-7997.0	-5872226.0
16	14	28	25	350	246.0	202698.0	-7460.0	-5871632.0
16	14	28	25	351	247.0	215037.0	-6249.0	-5872302.0
16	14	28	25	351	248.0	210164.0	-5089.0	-5872934.0
16	14	28	25	351	249.0	193402.0	-5076.0	-5872459.0
16	14	28	25	352	250.0	174551.0	-4694.0	-5871852.0
16	14	28	25	352	251.0	161780.0	-4544.0	-5872579.0
16	14	28	25	352	252.0	153585.0	-4770.0	-5873536.0
16	14	28	25	353	253.0	148039.0	-4056.0	-5873093.0
16	14	28	25	353	254.0	136695.0	-3161.0	-5872420.0
16	14	28	25	353	255.0	113862.0	-3069.0	-5872057.0
16	14	28	25	354	0.0	75056.0	-2668.0	-5873121.0
16	14	28	25	354	1.0	31837.0	-2719.0	-5873524.0
16	14	28	25	354	2.0	-263.0	-2259.0	-5872842.0
16	14	28	25	355	3.0	-4586.0	-2255.0	-5872271.0
16	14	28	25	355	4.0	-12086.0	-2207.0	-5872382.0
16	14	28	25	355	5.0	-104824.0	-1344.0	-5873682.0
16	14	28	25	356	6.0	-279947.0	-51.0	-5873319.0
16	14	28	25	356	7.0	-445521.0	1454.0	-5872765.0
16	14	28	25	356	8.0	-537596.0	1238.0	-5872155.0
16	14	28	25	356	9.0	-529061.0	1045.0	-5872660.0
16	14	28	25	357	10.0	-474707.0	1059.0	-5873448.0
16	14	28	25	494	11.0	-419702.0	358.0	-5872972.0
16	14	28	25	494	12.0	-332217.0	357.0	-5872332.0
16	14	28	25	495	13.0	-184242.0	1466.0	-5872406.0
16	14	28	25	495	14.0	-12102.0	2035.0	-5873722.0
16	14	28	25	495	15.0	142248.0	2199.0	-5873555.0
16	14	28	25	495	16.0	269416.0	2774.0	-5872952.0
16	14	28	25	496	17.0	390074.0	3668.0	-5872455.0
16	14	28	25	496	18.0	514920.0	3657.0	-5873246.0
16	14	28	25	496	19.0	605741.0	2844.0	-5873891.0
16	14	28	25	496	20.0	573319.0	2834.0	-5873353.0
16	14	28	25	496	21.0	385051.0	3536.0	-5872734.0
16	14	28	25	497	22.0	92112.0	4077.0	-5872422.0
16	14	28	25	497	23.0	-211441.0	3805.0	-5873491.0
16	14	28	25	497	24.0	-452522.0	3593.0	-5873459.0
16	14	28	25	498	25.0	-622047.0	4206.0	-5872824.0
16	14	28	25	498	26.0	-732441.0	4339.0	-5872371.0
16	14	28	25	498	27.0	-759169.0	4699.0	-5873168.0
16	14	28	25	499	28.0	-674731.0	5973.0	-5873693.0
16	14	28	25	499	29.0	-468938.0	6883.0	-5873136.0
16	14	28	25	499	30.0	-168599.0	6996.0	-5872607.0
16	14	28	25	500	31.0	167961.0	7628.0	-5872308.0
16	14	28	25	500	32.0	452810.0	7287.0	-5873579.0
16	14	28	25	500	33.0	600043.0	6327.0	-5873658.0
16	14	28	25	500	34.0	584837.0	5599.0	-5873083.0
16	14	28	25	501	35.0	453011.0	5719.0	-5872424.0
16	14	28	25	501	36.0	276733.0	6551.0	-5873124.0
16	14	28	25	501	37.0	109347.0	7271.0	-5873838.0
16	14	28	25	502	38.0	-14244.0	7690.0	-5873372.0
16	14	28	25	502	39.0	-79099.0	8011.0	-5872724.0
16	14	28	25	502	40.0	-87227.0	8559.0	-5872405.0
16	14	28	25	502	41.0	-44603.0	8455.0	-5873392.0
16	14	28	25	503	42.0	26296.0	9026.0	-5873620.0
16	14	28	25	503	43.0	90121.0	9763.0	-5872987.0
16	14	28	25	503	44.0	109194.0	10227.0	-5872687.0
16	14	28	25	503	45.0	79432.0	9975.0	-5873712.0
16	14	28	25	504	46.0	36037.0	10049.0	-5873952.0
16	14	28	25	504	47.0	3524.0	9838.0	-5873296.0
16	14	28	25	504	48.0	-13402.0	9061.0	-5872779.0
16	14	28	25	505	49.0	-23749.0	7926.0	-5872881.0
16	14	28	25	505	50.0	-36312.0	8024.0	-5874176.0
16	14	28	25	505	51.0	-52389.0	9223.0	-5873775.0
16	14	28	25	506	52.0	-68317.0	8974.0	-5873247.0
16	14	28	25	506	53.0	-80428.0	8866.0	-5872749.0
16	14	28	25	506	54.0	-88036.0	8412.0	-5873531.0
16	14	28	25	507	55.0	-96808.0	8051.0	-5873557.0
16	14	28	25	507	56.0	-113566.0	7264.0	-5873034.0
16	14	28	25	507	57.0	-144252.0	7534.0	-5872431.0
16	14	28	25	508	58.0	-177074.0	7911.0	-5873221.0
16	14	28	25	508	59.0	-194777.0	8623.0	-5874007.0
16	14	28	25	508	60.0	-199026.0	8149.0	-5873529.0
16	14	28	25	509	61.0	-198578.0	8871.0	-5872863.0
16	14	28	25	509	62.0	-189189.0	9678.0	-5873114.0
16	14	28	25	509	63.0	-169330.0	9203.0	-5874107.0
16	14	28	25	510	64.0	-145735.0	8430.0	-5873756.0
16	14	28	25	510	65.0	-124197.0	8625.0	-5873139.0
16	14	28	25	510	66.0	-97710.0	8889.0	-5872749.0
16	14	28	25	511	67.0	-68445.0	8424.0	-5873598.0
16	14	28	25	511	68.0	-39206.0	8768.0	-5874066.0
16	14	28	25	512	69.0	-10124.0	9449.0	-5873441.0
16	14	28	25	512	70.0	11387.0	9095.0	-5872885.0
16	14	28	25	512	71.0	32403.0	8616.0	-5873243.0
16	14	28	25	513	72.0	52173.0	8662.0	-5874383.0
16	14	28	25	513	73.0	70138.0	9240.0	-5873945.0
16	14	28	25	513	74.0	76981.0	10431.0	-5873379.0
16	14	28	25	514	75.0	62641.0	10403.0	-5873531.0
16	14	28	25	514	76.0	29664.0	10027.0	-5874911.0
16	14	28	25	515	77.0	-8767.0	10124.0	-5874554.0
16	14	28	25	515	78.0	-33961.0	9754.0	-5873992.0
16	14	28	25	515	79.0	-44893.0	9323.0	-5873369.0
16	14	28	25	516	80.0	-36709.0	9787.0	-5873360.0
16	14	28	25	516	81.0	578.0	10952.0	-5874546.0
16	14	28	25	516	82.0	57902.0	11505.0	-5874250.0
16	14	28	25	517	83.0	100871.0	11477.0	-5873606.0
16	14	28	25	517	84.0	105803.0	11385.0	-5873149.0
16	14	28	25	518	85.0	101685.0	12197.0	-5874286.0
16	14	28	25	518	86.0	111779.0	12313.0	-5874601.0
16	14	28	25	518	87.0	126699.0	12946.0	-5874041.0
16	14	28	25	519	88.0	142577.0	14968.0	-5873424.0
16	14	28	25	519	89.0	155503.0	17066.0	-5873245.0
16	14	28	25	519	90.0	163144.0	18188.0	-5874179.0
16	14	28	25	520	91.0	172866.0	19747.0	-5874037.0
16	14	28	25	520	92.0	171830.0	21614.0	-5873416.0
16	14	28	25	520	93.0	147999.0	22663.0	-5873558.0
16	14	28	25	677	94.0	111433.0	23813.0	-5874727.0
16	14	28	25	677	95.0	75735.0	26481.0	-5874441.0
16	14	28	25	677	96.0	59776.0	29781.0	-5873774.0
16	14	28	25	678	97.0	59744.0	32809.0	-5873310.0
16	14	28	25	678	98.0	66251.0	35673.0	-5874172.0
16	14	28	25	678	99.0	66251.0	38233.0	-5874774.0
16	14	28	25	678	100.0	63180.0	41148.0	-5874126.0
16	14	28	25	679	101.0	63093.0	43606.0	-5873599.0
16	14	28	25	679	102.0	59957.0	46679.0	-5873408.0
16	14	28	25	679	103.0	49496.0	50063.0	-5874905.0
16	14	28	25	679	104.0	32239.0	54457.0	-5874788.0
16	14	28	25	680	105.0	7843.0	57877.0	-5874249.0
16	14	28	25	680	106.0	-15565.0	61337.0	-5873652.0
16	14	28	25	680	107.0	-41843.0	64926.0	-5874461.0
16	14	28	25	680	108.0	-68529.0	67799.0	-5874881.0
16	14	28	25	681	109.0	-92114.0	70894.0	-5874369.0
16	14	28	25	681	110.0	-98907.0	74336.0	-5873710.0
16	14	28	25	681	111.0	-71673.0	78469.0	-5873531.0
16	14	28	25	682	112.0	-2444.0	80869.0	-5874491.0
16	14	28	25	682	113.0	62128.0	83766.0	-5874366.0
16	14	28	25	682	114.0	93787.0	87586.0	-5873669.0
16	14	28	25	682	115.0	91434.0	90476.0	-5873219.0
16	14	28	25	683	116.0	66355.0	92268.0	-5874248.0
16	14	28	25	683	117.0	27022.0	94776.0	-5874803.0
16	14	28	25	683	118.0	-7758.0	97401.0	-5874202.0
16	14	28	25	683	119.0	-17527.0	100462.0	-5873667.0
16	14	28	25	684	120.0	-8980.0	102316.0	-5873128.0
16	14	28	25	684	121.0	7399.0	104514.0	-5873690.0
16	14	28	25	684	122.0	25784.0	106125.0	-5873977.0
16	14	28	25	685	123.0	46486.0	106491.0	-5873495.0
16	14	28	25	685	124.0	68350.0	106856.0	-5874013.0
16	14	28	25	685	125.0	76314.0	107264.0	-5874977.0
16	14	28	25	685	126.0	66269.0	108977.0	-5874432.0
16	14	28	25	686	127.0	41984.0	110098.0	-5873907.0
16	14	28	25	686	128.0	2023.0	110151.0	-5873348.0
16	14	28	25	686	129.0	-40931.0	110188.0	-5873838.0
16	14	28	25	687	130.0	-77645.0	109052.0	-5873792.0
16	14	28	25	687	131.0	-100599.0	107257.0	-5873249.0
16	14	28	25	687	132.0	-107938.0	105836.0	-5872740.0
16	14	28	25	688	133.0	-99947.0	105331.0	-5873396.0
16	14	28	25	688	134.0	-79956.0	104356.0	-5873334.0
16	14	28	25	688	135.0	-48389.0	102721.0	-5872799.0
16	14	28	25	689	136.0	-8001.0	101343.0	-5872957.0
16	14	28	25	689	137.0	30925.0	99579.0	-5874136.0
16	14	28	25	689	138.0	61626.0	97334.0	-5873702.0
16	14	28	25	690	139.0	81677.0	94955.0	-5873187.0
16	14	28	25	690	140.0	89929.0	93036.0	-5872678.0
16	14	28	25	690	141.0	85251.0	91248.0	-5873750.0
16	14	28	25	691	142.0	76059.0	88381.0	-5874205.0
16	14	28	25	691	143.0	73701.0	84711.0	-5873684.0
16	14	28	25	692	144.0	63885.0	81989.0	-5873027.0
16	14	28	25	692	145.0	25948.0	79019.0	-5873266.0
16	14	28	25	692	146.0	-58172.0	75242.0	-5874232.0
16	14	28	25	693	147.0	-221876.0	71790.0	-5873871.0
16	14	28	25	693	148.0	-447944.0	69475.0	-5873238.0
16	14	28	25	693	149.0	-590927.0	66601.0	-5872714.0
16	14	28	25	694	150.0	-452995.0	63399.0	-5873431.0
16	14	28	25	694	151.0	-73137.0	60412.0	-5874121.0
16	14	28	25	694	152.0	361415.0	57056.0	-5873576.0
16	14	28	25	695	153.0	654161.0	52833.0	-5873026.0
16	14	28	25	695	154.0	641488.0	49238.0	-5873397.0
16	14	28	25	695	155.0	340562.0	46543.0	-5874540.0
16	14	28	25	696	156.0	-14953.0	44223.0	-5874069.0
16	14	28	25	696	157.0	-248136.0	41566.0	-5873503.0
16	14	28	25	696	158.0	-358446.0	38802.0	-5872964.0
16	14	28	25	697	159.0	-414457.0	35755.0	-5873470.0
16	14	28	25	697	160.0	-433774.0	32173.0	-5874107.0
16	14	28	25	697	161.0	-362789.0	28368.0	-5873624.0
16	14	28	25	698	162.0	-201165.0	25268.0	-5873075.0
16	14	28	25	698	163.0	-50776.0	22725.0	-5873874.0
16	14	28	25	698	164.0	10694.0	20265.0	-5874544.0
16	14	28	25	699	165.0	-11743.0	17301.0	-5874026.0
16	14	28	25	699	166.0	-78931.0	14544.0	-5873402.0
16	14	28	25	700	167.0	-104047.0	11347.0	-5873056.0
16	14	28	25	700	168.0	-68203.0	8419.0	-5874232.0
16	14	28	25	833	169.0	-1867.0	5608.0	-5874479.0
16	14	28	25	833	170.0	56714.0	3500.0	-5873914.0
16	14	28	25	834	171.0	84403.0	1802.0	-5873404.0
16	14	28	25	834	172.0	80504.0	-899.0	-5874109.0
16	14	28	25	834	173.0	57542.0	-3117.0	-5874724.0
16	14	28	25	834	174.0	38187.0	-5162.0	-5874172.0
16	14	28	25	835	175.0	33314.0	-6958.0	-5873594.0
16	14	28	25	835	176.0	46484.0	-8583.0	-5874086.0
16	14	28	25	835	177.0	64604.0	-10624.0	-5875109.0
16	14	28	25	836	178.0	78018.0	-12123.0	-5874655.0
16	14	28	25	836	179.0	82542.0	-13286.0	-5874023.0
16	14	28	25	836	180.0	79934.0	-15070.0	-5873509.0
16	14	28	25	836	181.0	91223.0	-17427.0	-5873422.0
16	14	28	25	837	182.0	119015.0	-18823.0	-5874279.0
16	14	28	25	837	183.0	149479.0	-20643.0	-5873903.0
16	14	28	25	837	184.0	161134.0	-23126.0	-5873511.0
16	14	28	25	837	185.0	142370.0	-24746.0	-5874631.0
16	14	28	25	838	186.0	109964.0	-26405.0	-5875040.0
16	14	28	25	838	187.0	74093.0	-27159.0	-5874461.0
16	14	28	25	838	188.0	49302.0	-28036.0	-5873895.0
16	14	28	25	838	189.0	40611.0	-28898.0	-5874029.0
16	14	28	25	839	190.0	47334.0	-30312.0	-5875124.0
16	14	28	25	839	191.0	64104.0	-32674.0	-5874758.0
16	14	28	25	839	192.0	74350.0	-34011.0	-5874195.0
16	14	28	25	840	193.0	80639.0	-35977.0	-5873752.0
16	14	28	25	840	194.0	77316.0	-38178.0	-5874916.0
16	14	28	25	840	195.0	63029.0	-39841.0	-5875082.0
16	14	28	25	840	196.0	40307.0	-41476.0	-5874547.0
16	14	28	25	841	197.0	19516.0	-42996.0	-5873888.0
16	14	28	25	841	198.0	12167.0	-44574.0	-5873795.0
16	14	28	25	841	199.0	5019.0	-46205.0	-5875031.0
16	14	28	25	842	200.0	-8530.0	-47249.0	-5874979.0
16	14	28	25	842	201.0	-28867.0	-47670.0	-5874285.0
16	14	28	25	842	202.0	-58290.0	-48737.0	-5873926.0
16	14	28	25	842	203.0	-98100.0	-49975.0	-5874992.0
16	14	28	25	843	204.0	-136383.0	-50849.0	-5875381.0
16	14	28	25	843	205.0	-165427.0	-52091.0	-5874723.0
16	14	28	25	843	206.0	-187661.0	-53289.0	-5874197.0
16	14	28	25	844	207.0	-207165.0	-53274.0	-5873902.0
16	14	28	25	844	208.0	-214652.0	-52944.0	-5874650.0
16	14	28	25	845	209.0	-212719.0	-53386.0	-5874325.0
16	14	28	25	845	210.0	-202479.0	-53506.0	-5873776.0
16	14	28	25	845	211.0	-184306.0	-54270.0	-5873534.0
16	14	28	25	846	212.0	-162209.0	-54536.0	-5874912.0
16	14	28	25	846	213.0	-130056.0	-55035.0	-5874796.0
16	14	28	25	846	214.0	-95233.0	-55519.0	-5874252.0
16	14	28	25	847	215.0	-54074.0	-55268.0	-5873721.0
16	14	28	25	847	216.0	-19071.0	-54414.0	-5874816.0
16	14	28	25	847	217.0	9345.0	-53614.0	-5875232.0
16	14	28	25	848	218.0	42061.0	-53519.0	-5874701.0
16	14	28	25	848	219.0	86680.0	-53698.0	-5874092.0
16	14	28	25	848	220.0	131346.0	-53794.0	-5874319.0
16	14	28	25	849	221.0	159220.0	-54402.0	-5875477.0
16	14	28	25	849	222.0	169988.0	-54100.0	-5875199.0
16	14	28	25	850	223.0	169468.0	-53142.0	-5874515.0
16	14	28	25	850	224.0	165296.0	-52954.0	-5874189.0
16	14	28	25	850	225.0	157398.0	-52734.0	-5875292.0
16	14	28	25	850	226.0	144291.0	-52424.0	-5875577.0
16	14	28	25	851	227.0	122257.0	-51807.0	-5874912.0
16	14	28	25	851	228.0	93299.0	-51289.0	-5874386.0
16	14	28	25	852	229.0	61796.0	-50837.0	-5873847.0
16	14	28	25	852	230.0	29928.0	-50072.0	-5874422.0
16	14	28	25	852	231.0	391.0	-48650.0	-5874437.0
16	14	28	25	853	232.0	-25483.0	-46960.0	-5873896.0
16	14	28	25	853	233.0	-42621.0	-46703.0	-5874050.0
16	14	28	25	853	234.0	-51111.0	-46603.0	-5875288.0
16	14	28	25	854	235.0	-50632.0	-46537.0	-5874871.0
16	14	28	25	854	236.0	-47735.0	-46279.0	-5874352.0
16	14	28	25	854	237.0	-50749.0	-44936.0	-5873792.0
16	14	28	25	855	238.0	-65306.0	-43407.0	-5874767.0
16	14	28	25	855	239.0	-90992.0	-42522.0	-5875307.0
16	14	28	25	855	240.0	-120671.0	-41504.0	-5874787.0
16	14	28	25	856	241.0	-148396.0	-40682.0	-5874121.0
16	14	28	25	856	242.0	-176301.0	-40289.0	-5874280.0
16	14	28	25	856	243.0	-195133.0	-40271.0	-5875442.0
16	14	28	25	857	244.0	-203730.0	-39762.0	-5875182.0
16	14	28	25	857	245.0	-203202.0	-38137.0	-5874518.0
16	14	28	25	857	246.0	-184659.0	-35811.0	-5874034.0
16	14	28	25	858	247.0	-156756.0	-34517.0	-5874817.0
16	14	28	25	858	248.0	-129257.0	-33926.0	-5875546.0
16	14	28	25	858	249.0	-108042.0	-33050.0	-5874993.0
16	14	28	25	858	250.0	-87464.0	-32862.0	-5874450.0
16	14	28	25	859	251.0	-65079.0	-32825.0	-5874477.0
16	14	28	25	859	252.0	-33380.0	-31952.0	-5875786.0
16	14	28	25	859	253.0	5835.0	-29915.0	-5875478.0
16	14	28	25	860	254.0	42999.0	-28824.0	-5874877.0
16	14	28	25	860	255.0	70606.0	-27768.0	-5874354.0
16	14	28	25	860	0.0	87677.0	-26753.0	-5874959.0
16	14	28	25	861	1.0	105048.0	-25396.0	-5875296.0
16	14	28	25	861	2.0	113673.0	-25322.0	-5874784.0
16	14	28	25	861	3.0	111268.0	-25474.0	-5874215.0
16	14	28	25	862	4.0	97183.0	-24651.0	-5875016.0
16	14	28	25	862	5.0	74539.0	-23362.0	-5875455.0
16	14	28	25	863	6.0	51840.0	-23311.0	-5874909.0
16	14	28	25	863	7.0	29626.0	-22849.0	-5874272.0
16	14	28	25	863	8.0	12519.0	-22564.0	-5874291.0
16	14	28	25	864	9.0	-1599.0	-22129.0	-5875423.0
16	14	28	26	3	10.0	-5086.0	-22835.0	-5875177.0
16	14	28	26	4	11.0	-6064.0	-22117.0	-5874593.0
16	14	28	26	4	12.0	-10529.0	-20570.0	-5874096.0
16	14	28	26	4	13.0	-22193.0	-19959.0	-5874829.0
16	14	28	26	5	14.0	-37795.0	-19356.0	-5875462.0
16	14	28	26	5	15.0	-52602.0	-19384.0	-5874877.0
16	14	28	26	5	16.0	-70336.0	-19372.0	-5874333.0
16	14	28	26	5	17.0	-79510.0	-19636.0	-5874876.0
16	14	28	26	6	18.0	-85191.0	-19287.0	-5875672.0
16	14	28	26	6	19.0	-92750.0	-19126.0	-5875126.0
16	14	28	26	6	20.0	-100827.0	-19722.0	-5874482.0
16	14	28	26	6	21.0	-114159.0	-19110.0	-5873956.0
16	14	28	26	7	22.0	-122337.0	-18669.0	-5874560.0
16	14	28	26	7	23.0	-128561.0	-19015.0	-5875586.0
16	14	28	26	7	24.0	-141045.0	-19141.0	-5875051.0
16	14	28	26	7	25.0	-146914.0	-19709.0	-5874482.0
16	14	28	26	8	26.0	-150902.0	-19852.0	-5874230.0
16	14	28	26	8	27.0	-150841.0	-20034.0	-5875385.0
16	14	28	26	8	28.0	-143668.0	-20301.0	-5875245.0
16	14	28	26	8	29.0	-139474.0	-20001.0	-5874687.0
16	14	28	26	9	30.0	-135966.0	-18719.0	-5874169.0
16	14	28	26	9	31.0	-131473.0	-18552.0	-5875105.0
16	14	28	26	9	32.0	-127991.0	-19079.0	-5875427.0
16	14	28	26	9	33.0	-123869.0	-18970.0	-5874882.0
16	14	28	26	10	34.0	-126341.0	-18297.0	-5874237.0
16	14	28	26	10	35.0	-137924.0	-18490.0	-5874249.0
16	14	28	26	10	36.0	-120531.0	-19211.0	-5875267.0
16	14	28	26	10	37.0	-32909.0	-19475.0	-5875044.0
16	14	28	26	11	38.0	78326.0	-19717.0	-5874413.0
16	14	28	26	11	39.0	155143.0	-19899.0	-5874055.0
16	14	28	26	11	40.0	178526.0	-20402.0	-5874889.0
16	14	28	26	12	41.0	149974.0	-20416.0	-5875166.0
16	14	28	26	12	42.0	92913.0	-20180.0	-5874514.0
16	14	28	26	12	43.0	32098.0	-18985.0	-5873999.0
16	14	28	26	12	44.0	-5947.0	-19342.0	-5874284.0
16	14	28	26	13	45.0	-8285.0	-20231.0	-5875167.0
16	14	28	26	13	46.0	17388.0	-19933.0	-5874647.0
16	14	28	26	13	47.0	60319.0	-20874.0	-5874123.0
16	14	28	26	13	48.0	98012.0	-21045.0	-5874096.0
16	14	28	26	14	49.0	124946.0	-20245.0	-5875157.0
16	14	28	26	14	50.0	140515.0	-19869.0	-5874724.0
16	14	28	26	14	51.0	148734.0	-19796.0	-5874159.0
16	14	28	26	14	52.0	159514.0	-19444.0	-5873539.0
16	14	28	26	15	53.0	177680.0	-19476.0	-5873794.0
16	14	28	26	15	54.0	192849.0	-19892.0	-5874929.0
16	14	28	26	15	55.0	201704.0	-20892.0	-5874617.0
16	14	28	26	15	56.0	213961.0	-20731.0	-5874003.0
16	14	28	26	16	57.0	227352.0	-20094.0	-5873883.0
16	14	28	26	16	58.0	234196.0	-19561.0	-5874988.0
16	14	28	26	16	59.0	245028.0	-19191.0	-5874814.0
16	14	28	26	16	60.0	253432.0	-18916.0	-5874196.0
16	14	28	26	17	61.0	253820.0	-18584.0	-5873753.0
16	14	28	26	17	62.0	251993.0	-19283.0	-5874692.0
16	14	28	26	17	63.0	247236.0	-19263.0	-5875303.0
16	14	28	26	17	64.0	236704.0	-18869.0	-5874690.0
16	14	28	26	18	65.0	213820.0	-18244.0	-5874100.0
16	14	28	26	18	66.0	183885.0	-18473.0	-5874361.0
16	14	28	26	18	67.0	155819.0	-18006.0	-5875286.0
16	14	28	26	18	68.0	134922.0	-17471.0	-5874844.0
16	14	28	26	19	69.0	117244.0	-17482.0	-5874255.0
16	14	28	26	19	70.0	94464.0	-17477.0	-5873813.0
16	14	28	26	19	71.0	74006.0	-16589.0	-5874795.0
16	14	28	26	20	72.0	55051.0	-15494.0	-5875258.0
16	14	28	26	20	73.0	36474.0	-14795.0	-5874667.0
16	14	28	26	20	74.0	25019.0	-14445.0	-5874083.0
16	14	28	26	20	75.0	14214.0	-14702.0	-5874065.0
16	14	28	26	21	76.0	3132.0	-14917.0	-5875234.0
16	14	28	26	21	77.0	-6434.0	-15354.0	-5874905.0
16	14	28	26	21	78.0	-17862.0	-15388.0	-5874330.0
16	14	28	26	21	79.0	-33644.0	-14839.0	-5873860.0
16	14	28	26	22	80.0	-44661.0	-13008.0	-5874962.0
16	14	28	26	22	81.0	-48217.0	-12522.0	-5875467.0
16	14	28	26	22	82.0	-44298.0	-12052.0	-5874921.0
16	14	28	26	22	83.0	-31204.0	-11576.0	-5874269.0
16	14	28	26	23	84.0	-13484.0	-11801.0	-5874024.0
16	14	28	26	143	85.0	10624.0	-12367.0	-5875030.0
16	14	28	26	144	86.0	32509.0	-11248.0	-5875029.0
16	14	28	26	144	87.0	44844.0	-9680.0	-5874376.0
16	14	28	26	144	88.0	49223.0	-8767.0	-5873930.0
16	14	28	26	145	89.0	45118.0	-9066.0	-5874834.0
16	14	28	26	145	90.0	38939.0	-9746.0	-5875339.0
16	14	28	26	145	91.0	32706.0	-9162.0	-5874739.0
16	14	28	26	146	92.0	37776.0	-8969.0	-5874232.0
16	14	28	26	146	93.0	56784.0	-9219.0	-5874074.0
16	14	28	26	146	94.0	91712.0	-8532.0	-5874991.0
16	14	28	26	147	95.0	132699.0	-7631.0	-5874672.0
16	14	28	26	147	96.0	161394.0	-7608.0	-5874094.0
16	14	28	26	147	97.0	177069.0	-7267.0	-5874065.0
16	14	28	26	147	98.0	186906.0	-6749.0	-5875091.0
16	14	28	26	148	99.0	196609.0	-6721.0	-5874676.0
16	14	28	26	148	100.0	208861.0	-6756.0	-5874147.0
16	14	28	26	148	101.0	211103.0	-5822.0	-5873667.0
16	14	28	26	149	102.0	190047.0	-4586.0	-5874786.0
16	14	28	26	149	103.0	139163.0	-3904.0	-5875230.0
16	14	28	26	149	104.0	72940.0	-3546.0	-5874721.0
16	14	28	26	149	105.0	24596.0	-3051.0	-5874054.0
16	14	28	26	150	106.0	10256.0	-2443.0	-5874160.0
16	14	28	26	150	107.0	-19577.0	-2776.0	-5875460.0
16	14	28	26	150	108.0	-145071.0	-2662.0	-5875263.0
16	14	28	26	150	109.0	-335144.0	-1118.0	-5874581.0
16	14	28	26	151	110.0	-498512.0	374.0	-5874196.0
16	14	28	26	151	111.0	-578417.0	565.0	-5875175.0
16	14	28	26	152	112.0	-545167.0	680.0	-5875584.0
16	14	28	26	152	113.0	-454575.0	794.0	-5874947.0
16	14	28	26	153	114.0	-353849.0	574.0	-5874433.0
16	14	28	26	153	115.0	-219426.0	667.0	-5874186.0
16	14	28	26	154	116.0	-40446.0	1226.0	-5875408.0
16	14	28	26	154	117.0	154683.0	1625.0	-5875244.0
16	14	28	26	155	118.0	326438.0	2034.0	-5874706.0
16	14	28	26	155	119.0	463215.0	2288.0	-5874132.0
16	14	28	26	155	120.0	579325.0	3077.0	-5874817.0
16	14	28	26	156	121.0	680980.0	3655.0	-5875331.0
16	14	28	26	156	122.0	763994.0	2873.0	-5874819.0
16	14	28	26	157	123.0	748790.0	2882.0	-5874222.0
16	14	28	26	157	124.0	577986.0	4160.0	-5874511.0
16	14	28	26	157	125.0	318008.0	5042.0	-5875674.0
16	14	28	26	158	126.0	80571.0	5343.0	-5875338.0
16	14	28	26	158	127.0	-103267.0	5402.0	-5874644.0
16	14	28	26	158	128.0	-258023.0	5472.0	-5874370.0
16	14	28	26	159	129.0	-386282.0	4963.0	-5875336.0
16	14	28	26	159	130.0	-468009.0	4524.0	-5875295.0
16	14	28	26	159	131.0	-475863.0	4840.0	-5874654.0
16	14	28	26	159	132.0	-401043.0	5233.0	-5874085.0
16	14	28	26	160	133.0	-236902.0	4815.0	-5874347.0
16	14	28	26	160	134.0	10968.0	5018.0	-5875569.0
16	14	28	26	160	135.0	270953.0	5459.0	-5875214.0
16	14	28	26	161	136.0	466581.0	5899.0	-5874638.0
16	14	28	26	161	137.0	554029.0	5489.0	-5874320.0
16	14	28	26	162	138.0	524838.0	5640.0	-5875432.0
16	14	28	26	162	139.0	403402.0	6283.0	-5875499.0
16	14	28	26	162	140.0	229746.0	7009.0	-5874889.0
16	14	28	26	163	141.0	57837.0	7415.0	-5874296.0
16	14	28	26	163	142.0	-68846.0	7378.0	-5874539.0
16	14	28	26	163	143.0	-146644.0	7158.0	-5875051.0
16	14	28	26	164	144.0	-181187.0	6849.0	-5874564.0
16	14	28	26	164	145.0	-195882.0	6606.0	-5874002.0
16	14	28	26	164	146.0	-203691.0	7382.0	-5874342.0
16	14	28	26	164	147.0	-211571.0	8232.0	-5874416.0
16	14	28	26	165	148.0	-233365.0	8213.0	-5873888.0
16	14	28	26	165	149.0	-274461.0	8534.0	-5873347.0
16	14	28	26	165	150.0	-334712.0	8638.0	-5873953.0
16	14	28	26	166	151.0	-395211.0	8899.0	-5874262.0
16	14	28	26	166	152.0	-438769.0	8296.0	-5873722.0
16	14	28	26	166	153.0	-448868.0	8118.0	-5873162.0
16	14	28	26	167	154.0	-422581.0	8839.0	-5873881.0
16	14	28	26	167	155.0	-377579.0	8936.0	-5874016.0
16	14	28	26	167	156.0	-319621.0	8747.0	-5873489.0
16	14	28	26	168	157.0	-250411.0	8730.0	-5873747.0
16	14	28	26	168	158.0	-181041.0	9101.0	-5874825.0
16	14	28	26	168	159.0	-127145.0	8819.0	-5874328.0
16	14	28	26	303	160.0	-103470.0	7831.0	-5873789.0
16	14	28	26	303	161.0	-105262.0	8059.0	-5873204.0
16	14	28	26	304	162.0	-128713.0	8887.0	-5873973.0
16	14	28	26	304	163.0	-155447.0	8666.0	-5874675.0
16	14	28	26	304	164.0	-181521.0	8397.0	-5874184.0
16	14	28	26	304	165.0	-202258.0	8498.0	-5873536.0
16	14	28	26	305	166.0	-215984.0	8218.0	-5873406.0
16	14	28	26	305	167.0	-211919.0	7354.0	-5874646.0
16	14	28	26	305	168.0	-190081.0	7065.0	-5874600.0
16	14	28	26	306	169.0	-154555.0	7382.0	-5873991.0
16	14	28	26	306	170.0	-101690.0	8324.0	-5873501.0
16	14	28	26	306	171.0	-41517.0	8248.0	-5874097.0
16	14	28	26	306	172.0	20300.0	8233.0	-5874646.0
16	14	28	26	307	173.0	69696.0	8473.0	-5874063.0
16	14	28	26	307	174.0	106608.0	8163.0	-5873499.0
16	14	28	26	307	175.0	141932.0	7189.0	-5873698.0
16	14	28	26	307	176.0	171239.0	7402.0	-5874574.0
16	14	28	26	307	177.0	194158.0	8856.0	-5874091.0
16	14	28	26	308	178.0	216259.0	9296.0	-5873477.0
16	14	28	26	308	179.0	243063.0	9228.0	-5873083.0
16	14	28	26	308	180.0	269816.0	9180.0	-5874306.0
16	14	28	26	308	181.0	272808.0	9671.0	-5874611.0
16	14	28	26	309	182.0	253779.0	9638.0	-5874032.0
16	14	28	26	309	183.0	218832.0	9205.0	-5873455.0
16	14	28	26	309	184.0	180821.0	10661.0	-5873231.0
16	14	28	26	309	185.0	146775.0	11686.0	-5874407.0
16	14	28	26	309	186.0	102912.0	12216.0	-5874219.0
16	14	28	26	310	187.0	52027.0	12575.0	-5873650.0
16	14	28	26	310	188.0	8924.0	12994.0	-5873430.0
16	14	28	26	310	189.0	-18304.0	13189.0	-5874688.0
16	14	28	26	310	190.0	-39488.0	13330.0	-5874554.0
16	14	28	26	311	191.0	-62087.0	14927.0	-5873992.0
16	14	28	26	311	192.0	-68552.0	17058.0	-5873373.0
16	14	28	26	312	193.0	-61095.0	18703.0	-5873623.0
16	14	28	26	312	194.0	-30581.0	19714.0	-5874663.0
16	14	28	26	312	195.0	19454.0	21411.0	-5874296.0
16	14	28	26	312	196.0	70344.0	23399.0	-5873629.0
16	14	28	26	313	197.0	114321.0	24734.0	-5873317.0
16	14	28	26	313	198.0	151033.0	27094.0	-5874360.0
16	14	28	26	313	199.0	182493.0	30206.0	-5874602.0
16	14	28	26	314	200.0	197661.0	33423.0	-5873937.0
16	14	28	26	314	201.0	191157.0	35773.0	-5873391.0
16	14	28	26	314	202.0	180744.0	38378.0	-5873037.0
16	14	28	26	315	203.0	165713.0	41377.0	-5873811.0
16	14	28	26	315	204.0	147901.0	43903.0	-5873574.0
16	14	28	26	315	205.0	124952.0	46512.0	-5873108.0
16	14	28	26	315	206.0	92646.0	49620.0	-5873923.0
16	14	28	26	316	207.0	51211.0	54017.0	-5874294.0
16	14	28	26	316	208.0	4527.0	57976.0	-5873659.0
16	14	28	26	316	209.0	-44367.0	61504.0	-5873131.0
16	14	28	26	317	210.0	-91701.0	64807.0	-5872597.0
16	14	28	26	317	211.0	-131486.0	68094.0	-5873544.0
16	14	28	26	317	212.0	-157769.0	70391.0	-5873871.0
16	14	28	26	317	213.0	-169565.0	74156.0	-5873349.0
16	14	28	26	318	214.0	-170019.0	78631.0	-5872699.0
16	14	28	26	318	215.0	-164536.0	82195.0	-5873103.0
16	14	28	26	318	216.0	-148511.0	85297.0	-5873882.0
16	14	28	26	318	217.0	-118189.0	87583.0	-5873459.0
16	14	28	26	319	218.0	-80354.0	90484.0	-5872817.0
16	14	28	26	319	219.0	-35376.0	92574.0	-5873399.0
16	14	28	26	319	220.0	2511.0	94741.0	-5874422.0
16	14	28	26	319	221.0	28713.0	96987.0	-5874032.0
16	14	28	26	320	222.0	43249.0	99929.0	-5873356.0
16	14	28	26	320	223.0	53318.0	101895.0	-5872912.0
16	14	28	26	320	224.0	68846.0	103654.0	-5873591.0
16	14	28	26	321	225.0	90531.0	104961.0	-5874254.0
16	14	28	26	321	226.0	114479.0	106121.0	-5873617.0
16	14	28	26	467	227.0	124905.0	106234.0	-5872995.0
16	14	28	26	467	228.0	119493.0	107385.0	-5873111.0
16	14	28	26	467	229.0	102451.0	109470.0	-5874445.0
16	14	28	26	468	230.0	76970.0	109852.0	-5874104.0
16	14	28	26	468	231.0	52168.0	109469.0	-5873532.0
16	14	28	26	468	232.0	24891.0	109088.0	-5872897.0
16	14	28	26	469	233.0	-6677.0	108689.0	-5872786.0
16	14	28	26	469	234.0	-37498.0	107273.0	-5873971.0
16	14	28	26	469	235.0	-66092.0	106092.0	-5873842.0
16	14	28	26	469	236.0	-90280.0	105715.0	-5873223.0
16	14	28	26	470	237.0	-109291.0	105776.0	-5873245.0
16	14	28	26	470	238.0	-115618.0	103954.0	-5874371.0
16	14	28	26	470	239.0	-113327.0	102154.0	-5874112.0
16	14	28	26	470	240.0	-99147.0	100366.0	-5873487.0
16	14	28	26	470	241.0	-75107.0	98936.0	-5872966.0
16	14	28	26	471	242.0	-56519.0	96378.0	-5873537.0
16	14	28	26	471	243.0	-51436.0	93903.0	-5873949.0
16	14	28	26	472	244.0	-55354.0	92226.0	-5873396.0
16	14	28	26	472	245.0	-66480.0	89555.0	-5872775.0
16	14	28	26	472	246.0	-71473.0	87073.0	-5872759.0
16	14	28	26	472	247.0	-78376.0	84205.0	-5873891.0
16	14	28	26	473	248.0	-89009.0	80996.0	-5873652.0
16	14	28	26	473	249.0	-117080.0	77071.0	-5873070.0
16	14	28	26	473	250.0	-209242.0	74229.0	-5872779.0
16	14	28	26	473	251.0	-376163.0	71690.0	-5873929.0
16	14	28	26	474	252.0	-476664.0	69469.0	-5874031.0
16	14	28	26	474	253.0	-336308.0	66285.0	-5873433.0
16	14	28	26	474	254.0	14533.0	62770.0	-5872892.0
16	14	28	26	474	255.0	413364.0	59816.0	-5873071.0
16	14	28	26	474	0.0	682303.0	56568.0	-5874160.0
16	14	28	26	475	1.0	698120.0	52009.0	-5873745.0
16	14	28	26	475	2.0	490051.0	49074.0	-5873157.0
16	14	28	26	475	3.0	227864.0	47202.0	-5872537.0
16	14	28	26	475	4.0	46688.0	44558.0	-5873444.0
16	14	28	26	476	5.0	-45684.0	41593.0	-5873924.0
16	14	28	26	476	6.0	-118526.0	37912.0	-5873414.0
16	14	28	26	476	7.0	-194574.0	34546.0	-5872750.0
16	14	28	26	477	8.0	-254616.0	30473.0	-5872851.0
16	14	28	26	477	9.0	-252822.0	26866.0	-5873820.0
16	14	28	26	477	10.0	-200667.0	24420.0	-5873540.0
16	14	28	26	478	11.0	-116952.0	22281.0	-5872883.0
16	14	28	26	478	12.0	-15549.0	19413.0	-5872828.0
16	14	28	26	478	13.0	72625.0	17196.0	-5873878.0
16	14	28	26	479	14.0	121451.0	14497.0	-5873761.0
16	14	28	26	479	15.0	131639.0	11892.0	-5873113.0
16	14	28	26	479	16.0	116788.0	8549.0	-5872611.0
16	14	28	26	480	17.0	88304.0	6320.0	-5873117.0
16	14	28	26	480	18.0	59601.0	4259.0	-5874056.0
16	14	28	26	480	19.0	39443.0	1909.0	-5873445.0
16	14	28	26	481	20.0	38396.0	-323.0	-5872877.0
16	14	28	26	481	21.0	62478.0	-2017.0	-5872757.0
16	14	28	26	481	22.0	97706.0	-4147.0	-5873950.0
16	14	28	26	482	23.0	136819.0	-7061.0	-5873716.0
16	14	28	26	482	24.0	162432.0	-8940.0	-5873171.0
16	14	28	26	482	25.0	181499.0	-10519.0	-5872633.0
16	14	28	26	483	26.0	196954.0	-12242.0	-5873079.0
16	14	28	26	483	27.0	207291.0	-13267.0	-5873454.0
16	14	28	26	483	28.0	219759.0	-15001.0	-5872960.0
16	14	28	26	484	29.0	229874.0	-16486.0	-5872439.0
16	14	28	26	484	30.0	234617.0	-18626.0	-5873121.0
16	14	28	26	484	31.0	232858.0	-20899.0	-5873094.0
16	14	28	26	485	32.0	220640.0	-22004.0	-5872563.0
16	14	28	26	485	33.0	204460.0	-22680.0	-5872134.0
16	14	28	26	485	34.0	190363.0	-23872.0	-5872829.0
16	14	28	26	486	35.0	185042.0	-25322.0	-5872590.0
16	14	28	26	486	36.0	189176.0	-27001.0	-5872041.0
16	14	28	26	486	37.0	198031.0	-28281.0	-5871665.0
16	14	28	26	487	38.0	204487.0	-30455.0	-5872452.0
16	14	28	26	487	39.0	193290.0	-32641.0	-5872192.0
16	14	28	26	488	40.0	156674.0	-33645.0	-5871798.0
16	14	28	26	488	41.0	105199.0	-34618.0	-5872790.0
16	14	28	26	488	42.0	47418.0	-35747.0	-5873304.0
16	14	28	26	489	43.0	-7006.0	-37545.0	-5872707.0
16	14	28	26	489	44.0	-63608.0	-38383.0	-5872161.0
16	14	28	26	489	45.0	-111684.0	-39576.0	-5872033.0
16	14	28	26	490	46.0	-156746.0	-42271.0	-5873362.0
16	14	28	26	490	47.0	-204969.0	-43665.0	-5873127.0
16	14	28	26	490	48.0	-230834.0	-44097.0	-5872573.0
16	14	28	26	491	49.0	-236914.0	-45387.0	-5871952.0
16	14	28	26	491	50.0	-237024.0	-46967.0	-5872739.0
16	14	28	26	492	51.0	-238468.0	-48064.0	-5873487.0
16	14	28	26	492	52.0	-230918.0	-48715.0	-5872996.0
16	14	28	26	492	53.0	-214900.0	-50350.0	-5872347.0
16	14	28	26	493	54.0	-198189.0	-51258.0	-5872111.0
16	14	28	26	493	55.0	-173226.0	-51510.0	-5873316.0
16	14	28	26	493	56.0	-141812.0	-51662.0	-5873492.0
16	14	28	26	494	57.0	-107367.0	-52297.0	-5872824.0
16	14	28	26	494	58.0	-69084.0	-52982.0	-5872365.0
16	14	28	26	494	59.0	-33175.0	-53827.0	-5873185.0
16	14	28	26	495	60.0	4516.0	-54639.0	-5873758.0
16	14	28	26	654	61.0	29947.0	-55718.0	-5873135.0
16	14	28	26	655	62.0	48898.0	-55794.0	-5872596.0
16	14	28	26	655	63.0	68088.0	-54551.0	-5872523.0
16	14	28	26	655	64.0	83974.0	-54480.0	-5873687.0
16	14	28	26	656	65.0	96770.0	-53984.0	-5873351.0
16	14	28	26	656	66.0	100676.0	-54479.0	-5872774.0
16	14	28	26	656	67.0	106776.0	-55197.0	-5872152.0
16	14	28	26	656	68.0	112897.0	-54721.0	-5872492.0
16	14	28	26	657	69.0	111918.0	-54602.0	-5873594.0
16	14	28	26	657	70.0	110626.0	-55072.0	-5873175.0
16	14	28	26	657	71.0	107551.0	-54454.0	-5872552.0
16	14	28	26	657	72.0	98765.0	-53676.0	-5872616.0
16	14	28	26	658	73.0	82524.0	-52934.0	-5873751.0
16	14	28	26	658	74.0	57278.0	-51987.0	-5873415.0
16	14	28	26	658	75.0	40764.0	-51292.0	-5872844.0
16	14	28	26	658	76.0	37760.0	-51302.0	-5872418.0
16	14	28	26	659	77.0	46221.0	-50335.0	-5873586.0
16	14	28	26	659	78.0	62279.0	-49511.0	-5873969.0
16	14	28	26	659	79.0	70589.0	-48182.0	-5873379.0
16	14	28	26	659	80.0	73924.0	-47101.0	-5872814.0
16	14	28	26	660	81.0	72187.0	-45597.0	-5873536.0
16	14	28	26	660	82.0	76993.0	-43749.0	-5874286.0
16	14	28	26	660	83.0	80249.0	-42862.0	-5873758.0
16	14	28	26	660	84.0	80539.0	-41738.0	-5873113.0
16	14	28	26	661	85.0	81510.0	-40826.0	-5872615.0
16	14	28	26	661	86.0	85403.0	-40504.0	-5873124.0
16	14	28	26	661	87.0	92850.0	-40131.0	-5873826.0
16	14	28	26	662	88.0	90202.0	-39552.0	-5873238.0
16	14	28	26	662	89.0	81923.0	-38547.0	-5872676.0
16	14	28	26	662	90.0	67646.0	-37984.0	-5872417.0
16	14	28	26	662	91.0	54559.0	-37614.0	-5873397.0
16	14	28	26	663	92.0	42141.0	-36434.0	-5873173.0
16	14	28	26	663	93.0	26510.0	-34779.0	-5872587.0
16	14	28	26	663	94.0	3829.0	-33106.0	-5872533.0
16	14	28	26	663	95.0	-22364.0	-31727.0	-5873732.0
16	14	28	26	664	96.0	-47762.0	-31282.0	-5873442.0
16	14	28	26	664	97.0	-68487.0	-30937.0	-5872886.0
16	14	28	26	664	98.0	-89969.0	-30741.0	-5872384.0
16	14	28	26	664	99.0	-115675.0	-29465.0	-5873326.0
16	14	28	26	665	100.0	-135929.0	-28138.0	-5873682.0
16	14	28	26	665	101.0	-143334.0	-27106.0	-5873147.0
16	14	28	26	665	102.0	-138497.0	-26627.0	-5872509.0
16	14	28	26	665	103.0	-118688.0	-26274.0	-5872651.0
16	14	28	26	666	104.0	-82763.0	-26093.0	-5873722.0
16	14	28	26	666	105.0	-39761.0	-26129.0	-5873437.0
16	14	28	26	666	106.0	-624.0	-25977.0	-5872763.0
16	14	28	26	667	107.0	35309.0	-25364.0	-5872534.0
16	14	28	26	667	108.0	60338.0	-23841.0	-5873605.0
16	14	28	26	667	109.0	77054.0	-22573.0	-5873598.0
16	14	28	26	667	110.0	78618.0	-22657.0	-5872936.0
16	14	28	26	668	111.0	64031.0	-21889.0	-5872460.0
16	14	28	26	668	112.0	46918.0	-21434.0	-5873257.0
16	14	28	26	668	113.0	35469.0	-21631.0	-5874058.0
16	14	28	26	669	114.0	27038.0	-22035.0	-5873472.0
16	14	28	26	669	115.0	17536.0	-21302.0	-5872940.0
16	14	28	26	669	116.0	16040.0	-20192.0	-5872306.0
16	14	28	26	669	117.0	22126.0	-20363.0	-5872941.0
16	14	28	26	670	118.0	32644.0	-20094.0	-5873762.0
16	14	28	26	670	119.0	42208.0	-20258.0	-5873285.0
16	14	28	26	670	120.0	42100.0	-20179.0	-5872645.0
16	14	28	26	671	121.0	33444.0	-20187.0	-5872713.0
16	14	28	26	671	122.0	16730.0	-20516.0	-5873896.0
16	14	28	26	671	123.0	-501.0	-19749.0	-5873712.0
16	14	28	26	672	124.0	-14654.0	-19661.0	-5873055.0
16	14	28	26	672	125.0	-24221.0	-18851.0	-5872592.0
16	14	28	26	672	126.0	-26027.0	-19165.0	-5873464.0
16	14	28	26	673	127.0	-24989.0	-19869.0	-5874069.0
16	14	28	26	673	128.0	-23729.0	-20501.0	-5873453.0
16	14	28	26	673	129.0	-23360.0	-20553.0	-5872925.0
16	14	28	26	673	130.0	-24640.0	-20480.0	-5873476.0
16	14	28	26	674	131.0	-25072.0	-20285.0	-5874386.0
16	14	28	26	674	132.0	-26820.0	-19681.0	-5873877.0
16	14	28	26	675	133.0	-26078.0	-19510.0	-5873306.0
16	14	28	26	675	134.0	-19844.0	-19187.0	-5872777.0
16	14	28	26	676	135.0	-8255.0	-18785.0	-5873361.0
16	14	28	26	676	136.0	1794.0	-18116.0	-5874252.0
16	14	28	26	677	137.0	-1690.0	-17806.0	-5873749.0
16	14	28	26	677	138.0	-7721.0	-18513.0	-5873181.0
16	14	28	26	677	139.0	755.0	-19071.0	-5873499.0
16	14	28	26	678	140.0	21153.0	-19194.0	-5874784.0
16	14	28	26	678	141.0	42633.0	-19114.0	-5874439.0
16	14	28	26	678	142.0	50016.0	-18918.0	-5873856.0
16	14	28	26	679	143.0	47347.0	-19984.0	-5873317.0
16	14	28	26	679	144.0	42608.0	-20127.0	-5874125.0
16	14	28	26	679	145.0	37836.0	-20082.0	-5875015.0
16	14	28	26	680	146.0	25043.0	-19385.0	-5874508.0
16	14	28	26	680	147.0	5676.0	-18976.0	-5873829.0
16	14	28	26	680	148.0	-14614.0	-19556.0	-5873547.0
16	14	28	26	681	149.0	-33956.0	-20170.0	-5874584.0
16	14	28	26	681	150.0	-42042.0	-20470.0	-5874684.0
16	14	28	26	681	151.0	-33327.0	-21144.0	-5874044.0
16	14	28	26	682	152.0	-13630.0	-19741.0	-5873494.0
16	14	28	26	682	153.0	11008.0	-19503.0	-5873316.0
16	14	28	26	682	154.0	29947.0	-19306.0	-5874215.0
16	14	28	26	683	155.0	46541.0	-19386.0	-5873917.0
16	14	28	26	683	156.0	58333.0	-20197.0	-5873429.0
16	14	28	26	683	157.0	60497.0	-19936.0	-5874215.0
16	14	28	26	684	158.0	44014.0	-20077.0	-5874918.0
16	14	28	26	684	159.0	18399.0	-20280.0	-5874352.0
16	14	28	26	684	160.0	-12646.0	-19738.0	-5873802.0
16	14	28	26	834	161.0	-43201.0	-18681.0	-5873791.0
16	14	28	26	834	162.0	-59767.0	-18846.0	-5875014.0
16	14	28	26	835	163.0	-65145.0	-18520.0	-5874662.0
16	14	28	26	835	164.0	-61656.0	-18446.0	-5874117.0
16	14	28	26	835	165.0	-41836.0	-19361.0	-5873486.0
16	14	28	26	835	166.0	-19174.0	-19651.0	-5874003.0
16	14	28	26	836	167.0	3337.0	-18710.0	-5874918.0
16	14	28	26	836	168.0	20170.0	-17367.0	-5874501.0
16	14	28	26	836	169.0	29238.0	-17823.0	-5873834.0
16	14	28	26	836	170.0	33504.0	-17376.0	-5873646.0
16	14	28	26	837	171.0	34380.0	-17257.0	-5874601.0
16	14	28	26	837	172.0	35975.0	-17232.0	-5874473.0
16	14	28	26	837	173.0	30949.0	-17447.0	-5873824.0
16	14	28	26	837	174.0	19788.0	-16822.0	-5873387.0
16	14	28	26	838	175.0	7342.0	-16579.0	-5874224.0
16	14	28	26	838	176.0	-5776.0	-15856.0	-5874832.0
16	14	28	26	838	177.0	-16231.0	-15089.0	-5874202.0
16	14	28	26	838	178.0	-27317.0	-15129.0	-5873671.0
16	14	28	26	838	179.0	-42056.0	-14785.0	-5873181.0
16	14	28	26	839	180.0	-61523.0	-14597.0	-5873971.0
16	14	28	26	839	181.0	-71551.0	-14549.0	-5873874.0
16	14	28	26	839	182.0	-69902.0	-14087.0	-5873345.0
16	14	28	26	839	183.0	-62550.0	-13144.0	-5873019.0
16	14	28	26	840	184.0	-54119.0	-12147.0	-5873946.0
16	14	28	26	840	185.0	-40492.0	-12147.0	-5873754.0
16	14	28	26	840	186.0	-29749.0	-10816.0	-5873257.0
16	14	28	26	840	187.0	-8855.0	-9784.0	-5873925.0
16	14	28	26	841	188.0	23487.0	-10432.0	-5874744.0
16	14	28	26	841	189.0	61466.0	-10239.0	-5874171.0
16	14	28	26	841	190.0	90578.0	-10347.0	-5873602.0
16	14	28	26	842	191.0	109625.0	-10189.0	-5873509.0
16	14	28	26	842	192.0	129856.0	-9296.0	-5874675.0
16	14	28	26	842	193.0	148229.0	-8989.0	-5874365.0
16	14	28	26	842	194.0	165388.0	-8989.0	-5873829.0
16	14	28	26	843	195.0	191574.0	-9299.0	-5873122.0
16	14	28	26	843	196.0	216623.0	-9489.0	-5873227.0
16	14	28	26	843	197.0	233412.0	-9346.0	-5874213.0
16	14	28	26	843	198.0	232322.0	-8466.0	-5873938.0
16	14	28	26	844	199.0	215169.0	-7396.0	-5873285.0
16	14	28	26	844	200.0	187389.0	-6906.0	-5873169.0
16	14	28	26	844	201.0	160454.0	-6145.0	-5874394.0
16	14	28	26	845	202.0	136579.0	-5443.0	-5874389.0
16	14	28	26	845	203.0	104948.0	-5986.0	-5873764.0
16	14	28	26	845	204.0	60981.0	-5656.0	-5873267.0
16	14	28	26	845	205.0	10544.0	-4782.0	-5873718.0
16	14	28	26	846	206.0	-42031.0	-5043.0	-5874551.0
16	14	28	26	846	207.0	-84419.0	-4887.0	-5873970.0
16	14	28	26	846	208.0	-108871.0	-4413.0	-5873446.0
16	14	28	26	847	209.0	-108141.0	-4236.0	-5873065.0
16	14	28	26	847	210.0	-143220.0	-4449.0	-5873856.0
16	14	28	26	847	211.0	-264687.0	-4221.0	-5873625.0
16	14	28	26	847	212.0	-426906.0	-3414.0	-5873091.0
16	14	28	26	848	213.0	-544231.0	-2054.0	-5872654.0
16	14	28	26	848	214.0	-567004.0	-1182.0	-5873321.0
16	14	28	26	848	215.0	-508315.0	-791.0	-5873141.0
16	14	28	26	848	216.0	-419296.0	-467.0	-5872619.0
16	14	28	26	849	217.0	-328221.0	-614.0	-5872345.0
16	14	28	26	849	218.0	-206343.0	-775.0	-5873182.0
16	14	28	26	849	219.0	-30157.0	-345.0	-5872954.0
16	14	28	26	850	220.0	161426.0	635.0	-5872619.0
16	14	28	26	850	221.0	334093.0	1538.0	-5873699.0
16	14	28	26	850	222.0	471174.0	2076.0	-5873949.0
16	14	28	26	851	223.0	562759.0	1924.0	-5873353.0
16	14	28	26	851	224.0	631111.0	2129.0	-5872804.0
16	14	28	26	851	225.0	681814.0	2651.0	-5872767.0
16	14	28	26	852	226.0	644860.0	3315.0	-5873501.0
16	14	28	26	852	227.0	461436.0	4069.0	-5873031.0
16	14	28	26	852	228.0	209860.0	4003.0	-5872448.0
16	14	28	26	853	229.0	-9826.0	3441.0	-5872724.0
16	14	28	26	853	230.0	-192266.0	3181.0	-5873744.0
16	14	28	26	854	231.0	-357232.0	3429.0	-5873288.0
16	14	28	26	854	232.0	-485712.0	3724.0	-5872719.0
16	14	28	26	855	233.0	-533597.0	3578.0	-5872173.0
16	14	28	26	855	234.0	-485309.0	4588.0	-5873051.0
16	14	28	26	855	235.0	-371161.0	4853.0	-5873557.0
16	14	28	26	856	236.0	-196846.0	5112.0	-5873033.0
16	14	28	26	856	237.0	27679.0	5577.0	-5872498.0
16	14	28	26	856	238.0	241236.0	6058.0	-5873398.0
16	14	28	26	856	239.0	373525.0	7018.0	-5874106.0
16	14	28	26	857	240.0	391543.0	7440.0	-5873609.0
16	14	28	26	857	241.0	301736.0	8026.0	-5872982.0
16	14	28	26	857	242.0	138913.0	8804.0	-5872785.0
16	14	28	26	858	243.0	-44252.0	8783.0	-5873824.0
16	14	28	26	858	244.0	-204342.0	8668.0	-5873721.0
16	14	28	26	858	245.0	-311471.0	8584.0	-5873042.0
16	14	28	26	859	246.0	-344855.0	8300.0	-5872503.0
16	14	28	26	859	247.0	-322389.0	8166.0	-5872201.0
16	14	28	26	859	248.0	-267598.0	7297.0	-5872879.0
16	14	28	27	10	249.0	-201277.0	7535.0	-5872555.0
16	14	28	27	10	250.0	-139544.0	7688.0	-5872407.0
16	14	28	27	11	251.0	-90572.0	8699.0	-5873829.0
16	14	28	27	11	252.0	-69001.0	9671.0	-5873927.0
16	14	28	27	11	253.0	-81885.0	9777.0	-5873282.0
16	14	28	27	12	254.0	-121547.0	9363.0	-5872738.0
16	14	28	27	12	255.0	-166751.0	9002.0	-5872644.0
16	14	28	27	12	0.0	-183524.0	8256.0	-5873779.0
16	14	28	27	12	1.0	-164495.0	9036.0	-5873466.0
16	14	28	27	13	2.0	-123592.0	9747.0	-5872906.0
16	14	28	27	13	3.0	-77393.0	9328.0	-5872262.0
16	14	28	27	13	4.0	-29523.0	9228.0	-5872984.0
16	14	28	27	13	5.0	9691.0	8504.0	-5873504.0
16	14	28	27	14	6.0	30358.0	8821.0	-5873017.0
16	14	28	27	14	7.0	36388.0	8695.0	-5872391.0
16	14	28	27	14	8.0	29483.0	8905.0	-5872314.0
16	14	28	27	14	9.0	3041.0	10019.0	-5873530.0
16	14	28	27	15	10.0	-35977.0	9891.0	-5873497.0
16	14	28	27	15	11.0	-71512.0	9464.0	-5872892.0
16	14	28	27	15	12.0	-88952.0	8981.0	-5872524.0
16	14	28	27	16	13.0	-86492.0	8698.0	-5873614.0
16	14	28	27	16	14.0	-61496.0	7934.0	-5874059.0
16	14	28	27	16	15.0	-21361.0	7749.0	-5873429.0
16	14	28	27	16	16.0	31321.0	8626.0	-5872889.0
16	14	28	27	17	17.0	83999.0	9555.0	-5872669.0
16	14	28	27	17	18.0	126192.0	9685.0	-5874032.0
16	14	28	27	17	19.0	154051.0	9419.0	-5873886.0
16	14	28	27	17	20.0	161690.0	9024.0	-5873297.0
16	14	28	27	18	21.0	152353.0	8614.0	-5872723.0
16	14	28	27	18	22.0	133578.0	8160.0	-5873368.0
16	14	28	27	18	23.0	119439.0	8504.0	-5874137.0
16	14	28	27	18	24.0	113971.0	9238.0	-5873634.0
16	14	28	27	19	25.0	114106.0	10018.0	-5873025.0
16	14	28	27	19	26.0	116136.0	10120.0	-5872744.0
16	14	28	27	19	27.0	107535.0	10517.0	-5873972.0
16	14	28	27	19	28.0	103393.0	10864.0	-5873984.0
16	14	28	27	20	29.0	107009.0	10096.0	-5873373.0
16	14	28	27	20	30.0	103708.0	9734.0	-5872867.0
16	14	28	27	20	31.0	102364.0	10094.0	-5873649.0
16	14	28	27	20	32.0	90618.0	11506.0	-5874101.0
16	14	28	27	21	33.0	70219.0	12182.0	-5873536.0
16	14	28	27	21	34.0	46446.0	12519.0	-5872933.0
16	14	28	27	21	35.0	18481.0	12644.0	-5873042.0
16	14	28	27	21	36.0	-6924.0	13286.0	-5874209.0
16	14	28	27	22	37.0	-28697.0	13353.0	-5873922.0
16	14	28	27	22	38.0	-49579.0	14744.0	-5873279.0
16	14	28	27	22	39.0	-65264.0	15920.0	-5872771.0
16	14	28	27	22	40.0	-71477.0	16968.0	-5873329.0
16	14	28	27	23	41.0	-70496.0	18011.0	-5874082.0
16	14	28	27	23	42.0	-70396.0	19563.0	-5873512.0
16	14	28	27	23	43.0	-62528.0	21481.0	-5872970.0
16	14	28	27	23	44.0	-49437.0	22739.0	-5872836.0
16	14	28	27	24	45.0	-23595.0	24999.0	-5873574.0
16	14	28	27	24	46.0	16451.0	27408.0	-5873221.0
16	14	28	27	24	47.0	53789.0	29361.0	-5872677.0
16	14	28	27	25	48.0	77531.0	31683.0	-5872785.0
16	14	28	27	25	49.0	91286.0	34424.0	-5873538.0
16	14	28	27	25	50.0	93250.0	38133.0	-5873110.0
16	14	28	27	25	51.0	86526.0	41033.0	-5872508.0
16	14	28	27	26	52.0	71952.0	43157.0	-5872834.0
16	14	28	27	26	53.0	59759.0	46509.0	-5873277.0
16	14	28	27	26	54.0	40481.0	49608.0	-5872732.0
16	14	28	27	26	55.0	6847.0	52489.0	-5872157.0
16	14	28	27	27	56.0	-22712.0	55789.0	-5872592.0
16	14	28	27	27	57.0	-57399.0	59466.0	-5872944.0
16	14	28	27	27	58.0	-97757.0	62543.0	-5872444.0
16	14	28	27	28	59.0	-139049.0	65899.0	-5872019.0
16	14	28	27	28	60.0	-167381.0	68910.0	-5873147.0
16	14	28	27	29	61.0	-170214.0	72106.0	-5873260.0
16	14	28	27	29	62.0	-152233.0	75873.0	-5872700.0
16	14	28	27	29	63.0	-117724.0	78408.0	-5872094.0
16	14	28	27	29	64.0	-76886.0	81409.0	-5872774.0
16	14	28	27	30	65.0	-29306.0	84371.0	-5873453.0
16	14	28	27	30	66.0	13407.0	87103.0	-5872959.0
16	14	28	27	30	67.0	42392.0	89497.0	-5872281.0
16	14	28	27	31	68.0	62221.0	92164.0	-5871856.0
16	14	28	27	31	69.0	67348.0	94803.0	-5872789.0
16	14	28	27	31	70.0	74788.0	97595.0	-5873236.0
16	14	28	27	32	71.0	91244.0	100288.0	-5872613.0
16	14	28	27	32	72.0	112574.0	101769.0	-5872076.0
16	14	28	27	32	73.0	123216.0	102738.0	-5872634.0
16	14	28	27	33	74.0	118873.0	102924.0	-5873533.0
16	14	28	27	33	75.0	120563.0	103031.0	-5873033.0
16	14	28	27	33	76.0	121076.0	104168.0	-5872474.0
16	14	28	27	34	77.0	108175.0	105699.0	-5872267.0
16	14	28	27	34	78.0	77014.0	106451.0	-5873390.0
16	14	28	27	34	79.0	44358.0	106493.0	-5873264.0
16	14	28	27	35	80.0	17526.0	106153.0	-5872682.0
16	14	28	27	35	81.0	-8236.0	105006.0	-5872114.0
16	14	28	27	199	82.0	-24496.0	104102.0	-5872659.0
16	14	28	27	199	83.0	-31816.0	103506.0	-5873344.0
16	14	28	27	200	84.0	-38831.0	102679.0	-5872776.0
16	14	28	27	200	85.0	-35888.0	102144.0	-5872230.0
16	14	28	27	200	86.0	-23876.0	101059.0	-5871809.0
16	14	28	27	200	87.0	-14487.0	99230.0	-5872896.0
16	14	28	27	201	88.0	-3175.0	97704.0	-5873031.0
16	14	28	27	201	89.0	9003.0	95017.0	-5872502.0
16	14	28	27	201	90.0	28066.0	92273.0	-5871957.0
16	14	28	27	202	91.0	51335.0	90204.0	-5872957.0
16	14	28	27	202	92.0	66947.0	88004.0	-5873529.0
16	14	28	27	202	93.0	63857.0	85211.0	-5872991.0
16	14	28	27	202	94.0	24831.0	82696.0	-5872368.0
16	14	28	27	203	95.0	-77502.0	79813.0	-5872594.0
16	14	28	27	203	96.0	-256161.0	76542.0	-5873571.0
16	14	28	27	203	97.0	-406586.0	73023.0	-5873196.0
16	14	28	27	203	98.0	-311369.0	70220.0	-5872563.0
16	14	28	27	204	99.0	31908.0	68248.0	-5872096.0
16	14	28	27	204	100.0	475839.0	65764.0	-5872643.0
16	14	28	27	204	101.0	815776.0	62644.0	-5873380.0
16	14	28	27	204	102.0	878528.0	59419.0	-5872789.0
16	14	28	27	205	103.0	648181.0	55751.0	-5872242.0
16	14	28	27	205	104.0	301406.0	51825.0	-5872601.0
16	14	28	27	205	105.0	27111.0	48496.0	-5873407.0
16	14	28	27	206	106.0	-144232.0	45809.0	-5872831.0
16	14	28	27	206	107.0	-266560.0	43522.0	-5872316.0
16	14	28	27	206	108.0	-339048.0	40564.0	-5871932.0
16	14	28	27	206	109.0	-321641.0	37675.0	-5872979.0
16	14	28	27	207	110.0	-232616.0	34864.0	-5872967.0
16	14	28	27	207	111.0	-149827.0	31459.0	-5872436.0
16	14	28	27	207	112.0	-94384.0	27873.0	-5871904.0
16	14	28	27	207	113.0	-65901.0	25189.0	-5872872.0
16	14	28	27	208	114.0	-55604.0	23621.0	-5873186.0
16	14	28	27	208	115.0	-33561.0	20489.0	-5872631.0
16	14	28	27	208	116.0	14108.0	18143.0	-5871996.0
16	14	28	27	209	117.0	67474.0	15970.0	-5871801.0
16	14	28	27	209	118.0	105705.0	13423.0	-5873100.0
16	14	28	27	209	119.0	107376.0	10016.0	-5873143.0
16	14	28	27	210	120.0	72820.0	7002.0	-5872520.0
16	14	28	27	210	121.0	18857.0	4588.0	-5872052.0
16	14	28	27	210	122.0	-19987.0	3181.0	-5872965.0
16	14	28	27	211	123.0	-32328.0	203.0	-5873576.0
16	14	28	27	211	124.0	-33151.0	-2300.0	-5872985.0
16	14	28	27	212	125.0	-29191.0	-4706.0	-5872441.0
16	14	28	27	212	126.0	-18627.0	-6952.0	-5872785.0
16	14	28	27	212	127.0	-3642.0	-9203.0	-5873850.0
16	14	28	27	213	128.0	11419.0	-10297.0	-5873436.0
16	14	28	27	213	129.0	9896.0	-11059.0	-5872836.0
16	14	28	27	214	130.0	2143.0	-12368.0	-5872314.0
16	14	28	27	214	131.0	-1626.0	-14156.0	-5873115.0
16	14	28	27	214	132.0	-1364.0	-16361.0	-5873864.0
16	14	28	27	215	133.0	-1087.0	-18297.0	-5873246.0
16	14	28	27	215	134.0	8531.0	-20718.0	-5872697.0
16	14	28	27	215	135.0	18001.0	-22492.0	-5872794.0
16	14	28	27	216	136.0	24389.0	-23328.0	-5874088.0
16	14	28	27	216	137.0	28793.0	-23244.0	-5873772.0
16	14	28	27	216	138.0	39069.0	-24235.0	-5873239.0
16	14	28	27	217	139.0	49239.0	-26300.0	-5872673.0
16	14	28	27	217	140.0	55755.0	-27839.0	-5873346.0
16	14	28	27	217	141.0	56857.0	-30027.0	-5874019.0
16	14	28	27	218	142.0	57801.0	-32510.0	-5873479.0
16	14	28	27	218	143.0	65084.0	-33527.0	-5872849.0
16	14	28	27	218	144.0	70998.0	-34971.0	-5873146.0
16	14	28	27	219	145.0	74581.0	-36960.0	-5874010.0
16	14	28	27	219	146.0	71061.0	-38613.0	-5873636.0
16	14	28	27	219	147.0	71634.0	-39862.0	-5872979.0
16	14	28	27	220	148.0	68571.0	-40542.0	-5872482.0
16	14	28	27	220	149.0	57361.0	-41882.0	-5872969.0
16	14	28	27	221	150.0	45804.0	-43142.0	-5874135.0
16	14	28	27	221	151.0	31488.0	-43556.0	-5873626.0
16	14	28	27	222	152.0	13579.0	-43603.0	-5873086.0
16	14	28	27	222	153.0	1587.0	-43909.0	-5872631.0
16	14	28	27	222	154.0	-10752.0	-44491.0	-5873547.0
16	14	28	27	223	155.0	-17317.0	-44481.0	-5873551.0
16	14	28	27	224	156.0	-20452.0	-45327.0	-5873011.0
16	14	28	27	224	157.0	-21940.0	-46724.0	-5872941.0
16	14	28	27	225	158.0	-26868.0	-46841.0	-5874081.0
16	14	28	27	225	159.0	-30532.0	-47051.0	-5873746.0
16	14	28	27	225	160.0	-24878.0	-47691.0	-5873224.0
16	14	28	27	226	161.0	-16442.0	-47913.0	-5872969.0
16	14	28	27	226	162.0	-10574.0	-48792.0	-5874167.0
16	14	28	27	227	163.0	-2861.0	-49327.0	-5873951.0
16	14	28	27	227	164.0	-3617.0	-50041.0	-5873425.0
16	14	28	27	227	165.0	-9669.0	-50753.0	-5872777.0
16	14	28	27	228	166.0	-19244.0	-50135.0	-5872964.0
16	14	28	27	228	167.0	-26147.0	-49881.0	-5874157.0
16	14	28	27	229	168.0	-21809.0	-49954.0	-5873894.0
16	14	28	27	229	169.0	-5807.0	-49558.0	-5873225.0
16	14	28	27	229	170.0	24434.0	-49334.0	-5872953.0
16	14	28	27	230	171.0	61265.0	-49627.0	-5874107.0
16	14	28	27	230	172.0	95562.0	-50015.0	-5874264.0
16	14	28	27	230	173.0	115763.0	-49582.0	-5873657.0
16	14	28	27	231	174.0	96116.0	-48311.0	-5873164.0
16	14	28	27	231	175.0	82311.0	-47671.0	-5873643.0
16	14	28	27	232	176.0	100108.0	-47460.0	-5874483.0
16	14	28	27	232	177.0	129909.0	-46991.0	-5873954.0
16	14	28	27	232	178.0	159682.0	-46550.0	-5873396.0
16	14	28	27	233	179.0	150228.0	-46991.0	-5872828.0
16	14	28	27	378	180.0	112790.0	-46834.0	-5873576.0
16	14	28	27	379	181.0	97619.0	-45999.0	-5874034.0
16	14	28	27	379	182.0	97249.0	-45231.0	-5873472.0
16	14	28	27	379	183.0	88194.0	-44972.0	-5872906.0
16	14	28	27	380	184.0	70863.0	-43707.0	-5873330.0
16	14	28	27	380	185.0	48353.0	-42754.0	-5873836.0
16	14	28	27	380	186.0	22266.0	-42304.0	-5873340.0
16	14	28	27	381	187.0	-12097.0	-41985.0	-5872841.0
16	14	28	27	381	188.0	-51740.0	-40489.0	-5873426.0
16	14	28	27	381	189.0	-97391.0	-37796.0	-5873447.0
16	14	28	27	382	190.0	-146134.0	-36407.0	-5872931.0
16	14	28	27	382	191.0	-193307.0	-36034.0	-5872495.0
16	14	28	27	382	192.0	-225849.0	-35106.0	-5873159.0
16	14	28	27	383	193.0	-239629.0	-34314.0	-5872961.0
16	14	28	27	383	194.0	-243337.0	-33769.0	-5872402.0
16	14	28	27	383	195.0	-238120.0	-32831.0	-5872523.0
16	14	28	27	383	196.0	-228396.0	-31259.0	-5873724.0
16	14	28	27	384	197.0	-208264.0	-30086.0	-5873295.0
16	14	28	27	384	198.0	-178631.0	-29641.0	-5872765.0
16	14	28	27	384	199.0	-150349.0	-29050.0	-5872158.0
16	14	28	27	384	200.0	-126154.0	-27977.0	-5872861.0
16	14	28	27	385	201.0	-101534.0	-27347.0	-5873368.0
16	14	28	27	385	202.0	-70977.0	-27487.0	-5872866.0
16	14	28	27	385	203.0	-30217.0	-25856.0	-5872279.0
16	14	28	27	385	204.0	16889.0	-24503.0	-5873046.0
16	14	28	27	386	205.0	53428.0	-24187.0	-5873824.0
16	14	28	27	386	206.0	84470.0	-23820.0	-5873398.0
16	14	28	27	386	207.0	119990.0	-23557.0	-5872771.0
16	14	28	27	386	208.0	155514.0	-23162.0	-5872336.0
16	14	28	27	387	209.0	184842.0	-23231.0	-5873073.0
16	14	28	27	387	210.0	205275.0	-23240.0	-5873615.0
16	14	28	27	387	211.0	208734.0	-22401.0	-5872982.0
16	14	28	27	387	212.0	193592.0	-20955.0	-5872416.0
16	14	28	27	388	213.0	170754.0	-20415.0	-5872387.0
16	14	28	27	388	214.0	152873.0	-20306.0	-5873579.0
16	14	28	27	388	215.0	145466.0	-20048.0	-5873299.0
16	14	28	27	389	216.0	140412.0	-19655.0	-5872745.0
16	14	28	27	389	217.0	132970.0	-19914.0	-5872200.0
16	14	28	27	389	218.0	118213.0	-19207.0	-5872854.0
16	14	28	27	390	219.0	99921.0	-17988.0	-5873587.0
16	14	28	27	390	220.0	83276.0	-18195.0	-5873089.0
16	14	28	27	390	221.0	65391.0	-17804.0	-5872457.0
16	14	28	27	391	222.0	41044.0	-18000.0	-5872793.0
16	14	28	27	391	223.0	6382.0	-18324.0	-5873885.0
16	14	28	27	391	224.0	-38126.0	-18909.0	-5873487.0
16	14	28	27	391	225.0	-77051.0	-19077.0	-5872887.0
16	14	28	27	392	226.0	-106017.0	-17811.0	-5872297.0
16	14	28	27	392	227.0	-122947.0	-17333.0	-5872813.0
16	14	28	27	392	228.0	-130887.0	-17599.0	-5873626.0
16	14	28	27	392	229.0	-131282.0	-17447.0	-5873153.0
16	14	28	27	393	230.0	-127099.0	-17036.0	-5872539.0
16	14	28	27	393	231.0	-127220.0	-17543.0	-5872651.0
16	14	28	27	393	232.0	-128487.0	-17423.0	-5873995.0
16	14	28	27	394	233.0	-122030.0	-17213.0	-5873774.0
16	14	28	27	394	234.0	-108844.0	-16061.0	-5873115.0
16	14	28	27	394	235.0	-94828.0	-16130.0	-5872711.0
16	14	28	27	395	236.0	-90097.0	-16132.0	-5873715.0
16	14	28	27	395	237.0	-84180.0	-15971.0	-5874238.0
16	14	28	27	395	238.0	-74416.0	-16387.0	-5873607.0
16	14	28	27	395	239.0	-60197.0	-17664.0	-5873074.0
16	14	28	27	396	240.0	-46229.0	-18306.0	-5872794.0
16	14	28	27	396	241.0	-33844.0	-17911.0	-5873647.0
16	14	28	27	396	242.0	-27279.0	-17711.0	-5873335.0
16	14	28	27	396	243.0	-21381.0	-17781.0	-5872776.0
16	14	28	27	397	244.0	-11254.0	-17453.0	-5872483.0
16	14	28	27	397	245.0	364.0	-16912.0	-5873292.0
16	14	28	27	397	246.0	2906.0	-17213.0	-5873034.0
16	14	28	27	397	247.0	-4861.0	-18184.0	-5872492.0
16	14	28	27	398	248.0	-14853.0	-18089.0	-5872084.0
16	14	28	27	398	249.0	-22926.0	-17025.0	-5873091.0
16	14	28	27	398	250.0	-26501.0	-17746.0	-5873066.0
16	14	28	27	399	251.0	-23024.0	-18299.0	-5872509.0
16	14	28	27	399	252.0	-11152.0	-17371.0	-5872221.0
16	14	28	27	399	253.0	-176.0	-17757.0	-5873446.0
16	14	28	27	399	254.0	7011.0	-18644.0	-5873387.0
16	14	28	27	400	255.0	14444.0	-18595.0	-5872831.0
16	14	28	27	400	0.0	29936.0	-17842.0	-5872206.0
16	14	28	27	400	1.0	53419.0	-17727.0	-5872376.0
16	14	28	27	400	2.0	83523.0	-17470.0	-5873484.0
16	14	28	27	401	3.0	118143.0	-17099.0	-5873181.0
16	14	28	27	401	4.0	141580.0	-16912.0	-5872501.0
16	14	28	27	401	5.0	144178.0	-18050.0	-5872215.0
16	14	28	27	596	6.0	127536.0	-18621.0	-5873266.0
16	14	28	27	596	7.0	97895.0	-18262.0	-5873388.0
16	14	28	27	597	8.0	75188.0	-17231.0	-5872744.0
16	14	28	27	597	9.0	60349.0	-16604.0	-5872219.0
16	14	28	27	597	10.0	51597.0	-16118.0	-5871884.0
16	14	28	27	597	11.0	48726.0	-15570.0	-5872729.0
16	14	28	27	598	12.0	46686.0	-15492.0	-5872489.0
16	14	28	27	598	13.0	44356.0	-15942.0	-5871967.0
16	14	28	27	598	14.0	43541.0	-15737.0	-5872526.0
16	14	28	27	598	15.0	39142.0	-14554.0	-5873273.0
16	14	28	27	599	16.0	36263.0	-13866.0	-5872677.0
16	14	28	27	599	17.0	30072.0	-14175.0	-5872126.0
16	14	28	27	599	18.0	18291.0	-14418.0	-5871789.0
16	14	28	27	599	19.0	7663.0	-14141.0	-5872468.0
16	14	28	27	599	20.0	-1049.0	-13933.0	-5872109.0
16	14	28	27	600	21.0	-12758.0	-13822.0	-5871596.0
16	14	28	27	600	22.0	-32446.0	-13063.0	-5871110.0
16	14	28	27	600	23.0	-55797.0	-12058.0	-5872163.0
16	14	28	27	600	24.0	-71770.0	-12206.0	-5872420.0
16	14	28	27	601	25.0	-84826.0	-12179.0	-5871897.0
16	14	28	27	601	26.0	-91052.0	-12045.0	-5871382.0
16	14	28	27	601	27.0	-94959.0	-12047.0	-5872413.0
16	14	28	27	601	28.0	-99199.0	-12499.0	-5872801.0
16	14	28	27	602	29.0	-105720.0	-12214.0	-5872283.0
16	14	28	27	602	30.0	-112033.0	-11143.0	-5871666.0
16	14	28	27	602	31.0	-109337.0	-10664.0	-5871818.0
16	14	28	27	602	32.0	-102776.0	-10644.0	-5872924.0
16	14	28	27	602	33.0	-77179.0	-10171.0	-5872654.0
16	14	28	27	603	34.0	-38316.0	-10291.0	-5872019.0
16	14	28	27	603	35.0	-4766.0	-10542.0	-5871599.0
16	14	28	27	603	36.0	16474.0	-11480.0	-5872486.0
16	14	28	27	604	37.0	18364.0	-11419.0	-5872957.0
16	14	28	27	604	38.0	16246.0	-9925.0	-5872323.0
16	14	28	27	604	39.0	12483.0	-9136.0	-5871810.0
16	14	28	27	604	40.0	7590.0	-9007.0	-5871421.0
16	14	28	27	604	41.0	1292.0	-8262.0	-5872551.0
16	14	28	27	605	42.0	113.0	-7542.0	-5872562.0
16	14	28	27	605	43.0	3738.0	-7968.0	-5872056.0
16	14	28	27	605	44.0	6543.0	-7799.0	-5871692.0
16	14	28	27	605	45.0	5091.0	-6521.0	-5872963.0
16	14	28	27	606	46.0	-9654.0	-5818.0	-5873022.0
16	14	28	27	606	47.0	-32379.0	-5155.0	-5872478.0
16	14	28	27	606	48.0	-59805.0	-5084.0	-5871811.0
16	14	28	27	606	49.0	-72402.0	-4800.0	-5871899.0
16	14	28	27	606	50.0	-58734.0	-4957.0	-5873162.0
16	14	28	27	607	51.0	-12574.0	-5355.0	-5872948.0
16	14	28	27	607	52.0	18956.0	-4851.0	-5872329.0
16	14	28	27	607	53.0	1852.0	-3501.0	-5871764.0
16	14	28	27	607	54.0	-66954.0	-3143.0	-5872019.0
16	14	28	27	608	55.0	-138241.0	-3395.0	-5872969.0
16	14	28	27	608	56.0	-184903.0	-3537.0	-5872504.0
16	14	28	27	608	57.0	-220129.0	-2899.0	-5871916.0
16	14	28	27	608	58.0	-250213.0	-3692.0	-5871882.0
16	14	28	27	609	59.0	-273559.0	-3052.0	-5872976.0
16	14	28	27	609	60.0	-280789.0	-1832.0	-5872651.0
16	14	28	27	609	61.0	-260419.0	-1571.0	-5872079.0
16	14	28	27	609	62.0	-213181.0	-1424.0	-5871528.0
16	14	28	27	610	63.0	-122033.0	-1296.0	-5872069.0
16	14	28	27	610	64.0	10368.0	-766.0	-5872541.0
16	14	28	27	610	65.0	159678.0	-934.0	-5872055.0
16	14	28	27	610	66.0	313587.0	-889.0	-5871936.0
16	14	28	27	611	67.0	485846.0	-62.0	-5873205.0
16	14	28	27	611	68.0	651927.0	268.0	-5873036.0
16	14	28	27	611	69.0	737936.0	1188.0	-5872486.0
16	14	28	27	612	70.0	678589.0	2324.0	-5871899.0
16	14	28	27	612	71.0	501208.0	2781.0	-5871604.0
16	14	28	27	612	72.0	269481.0	2571.0	-5872631.0
16	14	28	27	613	73.0	44079.0	2106.0	-5872541.0
16	14	28	27	613	74.0	-170354.0	2263.0	-5871945.0
16	14	28	27	613	75.0	-356140.0	2581.0	-5871824.0
16	14	28	27	614	76.0	-453107.0	3775.0	-5873092.0
16	14	28	27	614	77.0	-428243.0	4041.0	-5872908.0
16	14	28	27	614	78.0	-309376.0	4071.0	-5872353.0
16	14	28	27	615	79.0	-147977.0	4148.0	-5871781.0
16	14	28	27	615	80.0	352.0	4116.0	-5872312.0
16	14	28	27	615	81.0	113280.0	4185.0	-5873319.0
16	14	28	27	615	82.0	181271.0	5177.0	-5872883.0
16	14	28	27	616	83.0	215639.0	5609.0	-5872196.0
16	14	28	27	616	84.0	226028.0	6086.0	-5871809.0
16	14	28	27	617	85.0	199443.0	6412.0	-5872936.0
16	14	28	27	617	86.0	124905.0	6399.0	-5873551.0
16	14	28	27	617	87.0	6557.0	6511.0	-5872899.0
16	14	28	27	618	88.0	-113882.0	5854.0	-5872356.0
16	14	28	27	618	89.0	-198997.0	6046.0	-5872052.0
16	14	28	27	618	90.0	-241462.0	7002.0	-5873131.0
16	14	28	27	619	91.0	-246047.0	8097.0	-5872976.0
16	14	28	27	619	92.0	-225546.0	8491.0	-5872398.0
16	14	28	27	619	93.0	-197207.0	8584.0	-5872439.0
16	14	28	27	620	94.0	-173611.0	8449.0	-5873650.0
16	14	28	27	620	95.0	-154809.0	7835.0	-5873326.0
16	14	28	27	620	96.0	-133781.0	7928.0	-5872782.0
16	14	28	27	621	97.0	-108304.0	8362.0	-5872274.0
16	14	28	27	621	98.0	-80971.0	9384.0	-5873360.0
16	14	28	27	621	99.0	-48223.0	9228.0	-5873594.0
16	14	28	27	621	100.0	-24174.0	9239.0	-5873083.0
16	14	28	27	622	101.0	-7211.0	9231.0	-5872457.0
16	14	28	27	622	102.0	-512.0	8240.0	-5872159.0
16	14	28	27	622	103.0	-3605.0	7308.0	-5873324.0
16	14	28	27	622	104.0	-10799.0	7252.0	-5873636.0
16	14	28	27	623	105.0	-16514.0	7758.0	-5872972.0
16	14	28	27	623	106.0	-18634.0	8501.0	-5872666.0
16	14	28	27	623	107.0	-27454.0	8049.0	-5873812.0
16	14	28	27	623	108.0	-46236.0	8281.0	-5874119.0
16	14	28	27	624	109.0	-74111.0	8599.0	-5873498.0
16	14	28	27	624	110.0	-108859.0	7920.0	-5872997.0
16	14	28	27	624	111.0	-139344.0	7582.0	-5872781.0
16	14	28	27	625	112.0	-162509.0	8705.0	-5874175.0
16	14	28	27	821	113.0	-171652.0	9245.0	-5874054.0
16	14	28	27	821	114.0	-175517.0	8778.0	-5873508.0
16	14	28	27	821	115.0	-175615.0	8909.0	-5872827.0
16	14	28	27	821	116.0	-161352.0	8909.0	-5873209.0
16	14	28	27	822	117.0	-141937.0	8341.0	-5874000.0
16	14	28	27	822	118.0	-113751.0	7694.0	-5873587.0
16	14	28	27	822	119.0	-80682.0	9088.0	-5872953.0
16	14	28	27	822	120.0	-43042.0	9028.0	-5872711.0
16	14	28	27	823	121.0	-4633.0	8790.0	-5873877.0
16	14	28	27	823	122.0	30863.0	8516.0	-5873923.0
16	14	28	27	823	123.0	60451.0	8809.0	-5873329.0
16	14	28	27	823	124.0	85291.0	8719.0	-5872944.0
16	14	28	27	824	125.0	113244.0	7601.0	-5873914.0
16	14	28	27	824	126.0	148889.0	7349.0	-5874220.0
16	14	28	27	824	127.0	179979.0	7513.0	-5873605.0
16	14	28	27	824	128.0	197514.0	7727.0	-5873002.0
16	14	28	27	824	129.0	196700.0	8104.0	-5873239.0
16	14	28	27	825	130.0	185424.0	9226.0	-5874445.0
16	14	28	27	825	131.0	162218.0	9165.0	-5874051.0
16	14	28	27	825	132.0	138476.0	9500.0	-5873434.0
16	14	28	27	825	133.0	109708.0	9371.0	-5872866.0
16	14	28	27	826	134.0	79578.0	10208.0	-5872893.0
16	14	28	27	826	135.0	61985.0	10412.0	-5873496.0
16	14	28	27	826	136.0	53038.0	10454.0	-5873042.0
16	14	28	27	826	137.0	42713.0	10956.0	-5872627.0
16	14	28	27	827	138.0	35871.0	12148.0	-5873692.0
16	14	28	27	827	139.0	26154.0	13391.0	-5874054.0
16	14	28	27	827	140.0	17291.0	13593.0	-5873477.0
16	14	28	27	827	141.0	366.0	14325.0	-5872923.0
16	14	28	27	827	142.0	-16581.0	15984.0	-5873330.0
16	14	28	27	828	143.0	-25584.0	18488.0	-5874269.0
16	14	28	27	828	144.0	-20532.0	20596.0	-5873756.0
16	14	28	27	828	145.0	-6011.0	22011.0	-5873151.0
16	14	28	27	828	146.0	9870.0	23189.0	-5872892.0
16	14	28	27	829	147.0	21800.0	24652.0	-5874015.0
16	14	28	27	829	148.0	30961.0	26565.0	-5873847.0
16	14	28	27	829	149.0	45344.0	29408.0	-5873303.0
16	14	28	27	829	150.0	64487.0	33149.0	-5872651.0
16	14	28	27	829	151.0	84409.0	36365.0	-5872768.0
16	14	28	27	830	152.0	92434.0	38659.0	-5873737.0
16	14	28	27	830	153.0	88358.0	41013.0	-5873434.0
16	14	28	27	830	154.0	71364.0	43927.0	-5872773.0
16	14	28	27	830	155.0	44238.0	46279.0	-5872896.0
16	14	28	27	831	156.0	14876.0	48627.0	-5873982.0
16	14	28	27	831	157.0	-9379.0	52846.0	-5873659.0
16	14	28	27	831	158.0	-25744.0	57176.0	-5872999.0
16	14	28	27	831	159.0	-37181.0	60386.0	-5872532.0
16	14	28	27	832	160.0	-46098.0	63818.0	-5873164.0
16	14	28	27	832	161.0	-45030.0	66652.0	-5873592.0
16	14	28	27	832	162.0	-36435.0	68910.0	-5872938.0
16	14	28	27	832	163.0	-22152.0	71396.0	-5872360.0
16	14	28	27	833	164.0	-3339.0	74488.0	-5872009.0
16	14	28	27	833	165.0	21935.0	78518.0	-5872922.0
16	14	28	27	833	166.0	44681.0	81259.0	-5872724.0
16	14	28	27	833	167.0	59003.0	83733.0	-5872186.0
16	14	28	27	834	168.0	68521.0	85763.0	-5872011.0
16	14	28	27	834	169.0	69194.0	87981.0	-5872907.0
16	14	28	27	834	170.0	63294.0	89312.0	-5872623.0
16	14	28	27	834	171.0	54731.0	90542.0	-5872113.0
16	14	28	27	835	172.0	44981.0	92436.0	-5872353.0
16	14	28	27	835	173.0	39764.0	94343.0	-5873076.0
16	14	28	27	835	174.0	45191.0	95301.0	-5872618.0
16	14	28	27	835	175.0	57461.0	96509.0	-5872196.0
16	14	28	27	835	176.0	75921.0	97001.0	-5873281.0
16	14	28	27	836	177.0	91238.0	97161.0	-5873599.0
16	14	28	27	836	178.0	103185.0	96600.0	-5872987.0
16	14	28	27	836	179.0	99719.0	96979.0	-5872378.0
16	14	28	27	836	180.0	82831.0	97971.0	-5871957.0
16	14	28	27	837	181.0	60544.0	97689.0	-5873115.0
16	14	28	27	837	182.0	36009.0	97703.0	-5873142.0
16	14	28	27	837	183.0	17207.0	96813.0	-5872587.0
16	14	28	27	837	184.0	11749.0	94638.0	-5872009.0
16	14	28	27	838	185.0	16057.0	92639.0	-5872944.0
16	14	28	27	838	186.0	27179.0	91518.0	-5873643.0
16	14	28	27	838	187.0	21005.0	90339.0	-5873199.0
16	14	28	27	838	188.0	-2244.0	89206.0	-5872613.0
16	14	28	27	838	189.0	-66417.0	87984.0	-5872671.0
16	14	28	27	839	190.0	-186443.0	86015.0	-5873719.0
16	14	28	27	839	191.0	-311877.0	83376.0	-5873487.0
16	14	28	27	839	192.0	-312534.0	80370.0	-5872847.0
16	14	28	27	840	193.0	-110396.0	77364.0	-5872493.0
16	14	28	27	840	194.0	227421.0	74845.0	-5873510.0
16	14	28	27	840	195.0	573678.0	73990.0	-5873881.0
16	14	28	27	841	196.0	762261.0	71891.0	-5873230.0
16	14	28	27	841	197.0	654570.0	69448.0	-5872703.0
